timestamp,emg0,emg1,emg2,emg3,pkt_time_ns
6101972,4084,1346,1073,2604,1745187374116523079
6102969,4074,1407,1077,2580,1745187374116523079
6103969,4075,1466,1082,2561,1745187374116523079
6104969,4073,1525,1088,2549,1745187374116523079
6105970,4074,1565,1091,2532,1745187374116523079
6106970,4074,1605,1097,2516,1745187374116523079
6107970,4074,1635,1102,2506,1745187374116523079
6108970,4074,1650,1107,2497,1745187374116523079
6109970,4074,1652,1112,2492,1745187374116523079
6110970,4074,1633,1116,2488,1745187374116523079
6111970,4074,1595,1121,2485,1745187374116523079
6112970,4074,1547,1128,2482,1745187374116523079
6113970,4074,1519,1132,2477,1745187374116523079
6114970,4074,1521,1135,2473,1745187374116523079
6115970,4074,1538,1138,2464,1745187374116523079
6116970,4073,1563,1141,2450,1745187374116523079
6117971,4073,1589,1146,2436,1745187374116523079
6118971,4066,1630,1152,2414,1745187374116523079
6119971,4074,1676,1157,2392,1745187374116523079
6120971,4073,1742,1165,2370,1745187374116523079
6121971,4075,1826,1172,2347,1745187374116523079
6122971,4073,1925,1181,2325,1745187374116523079
6123971,4073,2027,1189,2304,1745187374116523079
6124971,4074,2122,1198,2283,1745187374116523079
6125971,4074,2197,1208,2267,1745187374116523079
6126971,4074,2238,1218,2254,1745187374116523079
6127971,4074,2238,1228,2246,1745187374116523079
6128971,4067,2206,1238,2242,1745187374116523079
6129972,4049,2160,1251,2240,1745187374116523079
6130972,4028,2114,1262,2238,1745187374116523079
6131972,4006,2080,1269,2235,1745187374116523079
6132972,3984,2051,1272,2233,1745187374116523079
6133972,3961,2022,1270,2227,1745187374116523079
6134972,3942,2006,1268,2218,1745187374116523079
6135972,3925,2004,1266,2202,1745187374116523079
6136972,3914,2031,1266,2180,1745187374116523079
6137972,3909,2093,1269,2154,1745187374116523079
6138972,3908,2180,1276,2124,1745187374116523079
6139972,3910,2288,1284,2090,1745187374116523079
6140972,3912,2402,1294,2056,1745187374116523079
6141973,3909,2517,1306,2018,1745187374116523079
6142973,3907,2618,1320,1984,1745187374116523079
6143973,3896,2715,1333,1953,1745187374116523079
6144973,3880,2797,1346,1939,1745187374116523079
6145973,3859,2868,1358,1905,1745187374116523079
6146973,3836,2913,1370,1888,1745187374116523079
6147973,3807,2931,1381,1874,1745187374116523079
6148973,3774,2934,1393,1862,1745187374116523079
6149973,3741,2924,1404,1856,1745187374116523079
6150973,3705,2899,1416,1849,1745187374116523079
6151973,3674,2869,1427,1843,1745187374116523079
6152973,3640,2841,1441,1837,1745187374116523079
6153974,3611,2824,1454,1826,1745187374116523079
6154974,3587,2821,1466,1812,1745187374116523079
6155974,3576,2837,1477,1794,1745187374116523079
6156974,3560,2878,1488,1770,1745187374116523079
6157974,3548,2946,1500,1741,1745187374116523079
6158974,3539,3036,1512,1706,1745187374116523079
6159974,3529,3141,1522,1668,1745187374188999969
6160974,3521,3244,1533,1627,1745187374188999969
6161974,3510,3337,1539,1592,1745187374188999969
6162974,3497,3415,1553,1556,1745187374188999969
6163974,3476,3484,1568,1531,1745187374188999969
6164974,3452,3552,1582,1503,1745187374188999969
6165975,3424,3608,1598,1481,1745187374188999969
6166975,3389,3659,1615,1464,1745187374188999969
6167975,3356,3688,1633,1450,1745187374188999969
6168976,3317,3688,1652,1441,1745187374188999969
6169975,3272,3681,1669,1433,1745187374188999969
6170975,3228,3684,1684,1426,1745187374188999969
6171975,3185,3724,1697,1418,1745187374188999969
6172975,3184,3693,1733,1425,1745187374188999969
6173975,3134,3649,1742,1408,1745187374188999969
6174975,3093,3625,1754,1391,1745187374188999969
6175975,3054,3644,1735,1354,1745187374188999969
6176975,2986,3669,1770,1339,1745187374188999969
6177976,2965,3762,1788,1313,1745187374188999969
6178976,2949,3852,1804,1283,1745187374188999969
6179976,2930,3914,1834,1248,1745187374188999969
6180976,2916,3962,1835,1214,1745187374188999969
6181976,2901,3995,1848,1179,1745187374188999969
6182976,2883,4015,1865,1145,1745187374188999969
6183976,2860,4033,1883,1111,1745187374188999969
6184976,2833,4044,1901,1082,1745187374188999969
6185976,2801,4052,1921,1054,1745187374188999969
6186976,2765,4058,1938,1028,1745187374188999969
6187976,2726,4064,1955,1002,1745187374188999969
6188976,2683,4066,1972,979,1745187374188999969
6189977,2640,4068,1992,958,1745187374188999969
6190977,2598,4070,2010,937,1745187374188999969
6191977,2559,4072,2029,917,1745187374188999969
6192977,2524,4075,2052,896,1745187374188999969
6193977,2482,4072,2070,873,1745187374188999969
6194977,2444,4074,2088,849,1745187374188999969
6195977,2408,4075,2106,821,1745187374188999969
6196977,2372,4073,2124,793,1745187374188999969
6197977,2338,4075,2144,761,1745187374188999969
6198977,2304,4076,2165,726,1745187374188999969
6199977,2270,4076,2186,690,1745187374188999969
6200977,2238,4075,2209,652,1745187374188999969
6201978,2204,4075,2230,610,1745187374188999969
6202978,2169,4075,2253,570,1745187374188999969
6203978,2133,4074,2277,525,1745187374188999969
6204978,2098,4074,2301,490,1745187374188999969
6205978,2061,4076,2328,445,1745187374188999969
6206978,2018,4077,2353,403,1745187374188999969
6207978,1977,4075,2379,362,1745187374188999969
6208978,1934,4076,2406,321,1745187374188999969
6209978,1888,4075,2436,282,1745187374188999969
6210978,1837,4072,2467,243,1745187374188999969
6211978,1786,4075,2490,206,1745187374188999969
6212978,1730,4074,2519,170,1745187374188999969
6213979,1673,4076,2548,140,1745187374188999969
6214979,1618,4076,2568,117,1745187374188999969
6215979,1561,4075,2595,99,1745187374188999969
6216979,1515,4075,2622,84,1745187374188999969
6217979,1461,4075,2649,72,1745187374228181642
6218979,1410,4076,2676,63,1745187374228181642
6219979,1359,4074,2706,56,1745187374228181642
6220979,1308,4077,2736,50,1745187374228181642
6221979,1259,4076,2765,44,1745187374228181642
6222979,1206,4075,2797,42,1745187374228181642
6223979,1152,4076,2827,38,1745187374228181642
6224979,1096,4076,2858,33,1745187374228181642
6225980,1037,4076,2891,33,1745187374228181642
6226980,979,4076,2923,33,1745187374228181642
6227980,917,4073,2960,29,1745187374228181642
6228981,853,4076,2996,29,1745187374228181642
6229980,788,4076,3030,29,1745187374228181642
6230980,721,4077,3065,28,1745187374228181642
6231980,652,4077,3102,27,1745187374228181642
6232980,580,4077,3141,26,1745187374228181642
6233980,511,4077,3172,26,1745187374228181642
6234980,442,4077,3221,26,1745187374228181642
6235980,365,4077,3257,25,1745187374228181642
6236980,293,4078,3295,26,1745187374228181642
6237981,237,4078,3329,25,1745187374228181642
6238981,194,4077,3365,26,1745187374228181642
6239981,160,4075,3402,24,1745187374228181642
6240981,133,4076,3437,25,1745187374228181642
6241981,110,4078,3472,25,1745187374228181642
6242981,94,4077,3510,25,1745187374228181642
6243981,80,4077,3549,25,1745187374228181642
6244981,69,4077,3583,21,1745187374228181642
6245981,58,4095,3667,20,1745187374228181642
6246981,51,4095,3704,21,1745187374228181642
6247981,47,4095,3745,20,1745187374228181642
6248981,41,4088,3728,25,1745187374228181642
6249982,42,4052,3791,25,1745187374228181642
6250982,38,4062,3842,25,1745187374228181642
6251982,36,4067,3885,24,1745187374228181642
6252982,35,4070,3928,21,1745187374228181642
6253982,34,4095,4021,22,1745187374228181642
6254982,29,4095,4029,21,1745187374228181642
6255982,28,4094,4044,20,1745187374228181642
6256982,27,4088,4049,26,1745187374228181642
6257982,30,4042,4021,24,1745187374228181642
6258982,29,4056,4040,24,1745187374228181642
6259982,30,4062,4049,25,1745187374228181642
6260982,27,4069,4057,24,1745187374228181642
6261983,27,4073,4063,22,1745187374228181642
6262983,28,4073,4065,24,1745187374228181642
6263983,27,4073,4069,24,1745187374228181642
6264983,26,4075,4070,24,1745187374228181642
6265983,27,4075,4073,23,1745187374228181642
6266983,26,4076,4073,24,1745187374228181642
6267983,27,4075,4075,23,1745187374228181642
6268983,26,4075,4075,23,1745187374228181642
6269983,26,4076,4075,23,1745187374228181642
6270983,26,4076,4076,24,1745187374228181642
6271983,26,4077,4077,23,1745187374228181642
6272983,26,4077,4076,22,1745187374228181642
6273984,26,4076,4076,24,1745187374228181642
6274984,26,4076,4077,24,1745187374228181642
6275984,25,4074,4077,23,1745187374291864914
6276984,26,4075,4076,22,1745187374291864914
6277984,26,4076,4075,24,1745187374291864914
6278984,27,4077,4078,24,1745187374291864914
6279984,24,4078,4078,24,1745187374291864914
6280984,25,4077,4077,24,1745187374291864914
6281984,26,4077,4076,24,1745187374291864914
6282984,26,4076,4079,24,1745187374291864914
6283984,26,4078,4074,26,1745187374291864914
6284984,25,4076,4077,37,1745187374291864914
6285985,25,4076,4080,54,1745187374291864914
6286985,24,4095,4095,69,1745187374291864914
6287985,21,4095,4038,89,1745187374291864914
6288985,27,4060,4065,115,1745187374291864914
6289985,25,4065,4067,139,1745187374291864914
6290985,24,4070,4073,163,1745187374291864914
6291985,25,4073,4095,187,1745187374291864914
6292985,26,4075,4077,214,1745187374291864914
6293985,25,4074,4077,242,1745187374291864914
6294985,25,4075,4078,272,1745187374291864914
6295985,24,4076,4077,301,1745187374291864914
6296985,24,4077,4078,330,1745187374291864914
6297986,24,4077,4077,357,1745187374291864914
6298986,24,4076,4079,387,1745187374291864914
6299986,25,4076,4077,416,1745187374291864914
6300986,25,4076,4078,448,1745187374291864914
6301986,25,4072,4079,479,1745187374291864914
6302986,25,4076,4078,511,1745187374291864914
6303986,25,4077,4079,537,1745187374291864914
6304986,24,4072,4078,574,1745187374291864914
6305986,24,4035,4080,613,1745187374291864914
6306986,25,3971,4080,656,1745187374291864914
6307986,24,3884,4079,699,1745187374291864914
6308986,24,3780,4077,742,1745187374291864914
6309987,23,3653,4077,789,1745187374291864914
6310987,25,3521,4079,836,1745187374291864914
6311987,24,3359,4078,885,1745187374291864914
6312987,25,3197,4077,939,1745187374291864914
6313987,24,3056,4066,994,1745187374291864914
6314987,24,2944,4050,1050,1745187374291864914
6315987,25,2846,4032,1103,1745187374291864914
6316987,25,2753,4014,1156,1745187374291864914
6317987,26,2666,3996,1207,1745187374291864914
6318987,24,2584,3978,1259,1745187374291864914
6319987,25,2513,3958,1308,1745187374291864914
6320987,25,2433,3938,1355,1745187374291864914
6321988,25,2353,3915,1403,1745187374291864914
6322988,25,2275,3892,1453,1745187374291864914
6323988,24,2196,3867,1496,1745187374291864914
6324988,25,2120,3843,1539,1745187374291864914
6325988,25,2042,3820,1588,1745187374291864914
6326988,25,1958,3797,1639,1745187374291864914
6327988,24,1857,3776,1690,1745187374291864914
6328988,24,1747,3756,1741,1745187374291864914
6329988,24,1635,3736,1793,1745187374291864914
6330988,25,1534,3714,1844,1745187374291864914
6331988,25,1432,3691,1897,1745187374291864914
6332988,24,1333,3665,1951,1745187374291864914
6333989,24,1233,3641,2003,1745187374346154679
6334989,25,1126,3616,2058,1745187374346154679
6335989,25,1016,3593,2107,1745187374346154679
6336989,24,905,3574,2156,1745187374346154679
6337989,25,815,3549,2202,1745187374346154679
6338989,25,731,3522,2246,1745187374346154679
6339989,25,658,3496,2290,1745187374346154679
6340989,25,592,3468,2329,1745187374346154679
6341989,25,537,3445,2369,1745187374346154679
6342989,24,498,3413,2408,1745187374346154679
6343989,24,454,3386,2445,1745187374346154679
6344989,24,409,3357,2482,1745187374346154679
6345990,25,361,3331,2522,1745187374346154679
6346990,25,308,3302,2557,1745187374346154679
6347990,24,251,3274,2593,1745187374346154679
6348990,25,204,3249,2627,1745187374346154679
6349990,25,165,3215,2701,1745187374346154679
6350990,21,134,3227,2737,1745187374346154679
6351990,20,114,3155,2745,1745187374346154679
6352990,24,96,3132,2787,1745187374346154679
6353990,25,82,3107,2828,1745187374346154679
6354990,24,70,3076,2868,1745187374346154679
6355990,19,62,3044,2905,1745187374346154679
6356990,25,54,3015,2940,1745187374346154679
6357991,24,49,2982,2972,1745187374346154679
6358991,24,44,2953,2998,1745187374346154679
6359991,24,41,2921,3027,1745187374346154679
6360991,24,37,2891,3051,1745187374346154679
6361991,25,36,2860,3080,1745187374346154679
6362991,24,34,2832,3104,1745187374346154679
6363991,24,33,2804,3129,1745187374346154679
6364991,25,32,2777,3156,1745187374346154679
6365991,24,30,2750,3181,1745187374346154679
6366991,24,29,2724,3205,1745187374346154679
6367991,25,29,2697,3231,1745187374346154679
6368991,25,29,2671,3258,1745187374346154679
6369992,23,29,2646,3282,1745187374346154679
6370992,24,28,2620,3308,1745187374346154679
6371992,28,27,2594,3331,1745187374346154679
6372992,32,27,2568,3357,1745187374346154679
6373992,59,26,2549,3382,1745187374346154679
6374992,105,27,2522,3406,1745187374346154679
6375992,161,27,2496,3430,1745187374346154679
6376992,225,26,2467,3450,1745187374346154679
6377992,291,26,2442,3468,1745187374346154679
6378992,359,26,2416,3486,1745187374346154679
6379992,428,26,2389,3502,1745187374346154679
6380992,497,26,2364,3518,1745187374346154679
6381993,554,26,2340,3530,1745187374346154679
6382993,620,25,2317,3540,1745187374346154679
6383993,686,25,2294,3549,1745187374346154679
6384993,755,25,2269,3556,1745187374346154679
6385993,814,26,2244,3564,1745187374346154679
6386993,876,26,2218,3570,1745187374346154679
6387993,936,25,2191,3578,1745187374346154679
6388993,995,25,2163,3581,1745187374346154679
6389993,1054,24,2137,3583,1745187374346154679
6390993,1112,24,2109,3587,1745187374346154679
6391993,1169,26,2088,3600,1745187374405758041
6392993,1222,25,2071,3617,1745187374405758041
6393994,1275,25,2053,3636,1745187374405758041
6394994,1325,25,2036,3654,1745187374405758041
6395994,1379,27,2018,3666,1745187374405758041
6396994,1432,24,1998,3676,1745187374405758041
6397994,1486,25,1976,3682,1745187374405758041
6398994,1535,25,1953,3684,1745187374405758041
6399994,1590,25,1930,3685,1745187374405758041
6400995,1649,24,1908,3686,1745187374405758041
6401994,1706,24,1886,3684,1745187374405758041
6402994,1764,22,1869,3680,1745187374405758041
6403994,1819,25,1847,3675,1745187374405758041
6404994,1881,21,1848,3712,1745187374405758041
6405996,1953,22,1787,3650,1745187374405758041
6406996,1984,25,1790,3659,1745187374405758041
6407995,2037,25,1773,3660,1745187374405758041
6408995,2092,25,1756,3659,1745187374405758041
6409995,2141,25,1738,3659,1745187374405758041
6410995,2182,24,1720,3659,1745187374405758041
6411995,2237,25,1700,3664,1745187374405758041
6412995,2280,25,1680,3670,1745187374405758041
6413995,2319,25,1659,3673,1745187374405758041
6414995,2365,25,1641,3675,1745187374405758041
6415995,2405,25,1625,3670,1745187374405758041
6416995,2446,25,1606,3666,1745187374405758041
6417996,2490,25,1592,3658,1745187374405758041
6418996,2533,25,1577,3651,1745187374405758041
6419996,2572,25,1564,3640,1745187374405758041
6420996,2619,24,1550,3628,1745187374405758041
6421996,2661,24,1538,3619,1745187374405758041
6422996,2709,25,1534,3610,1745187374405758041
6423996,2754,23,1521,3602,1745187374405758041
6424996,2796,24,1507,3592,1745187374405758041
6425996,2836,24,1494,3585,1745187374405758041
6426996,2877,24,1482,3583,1745187374405758041
6427996,2915,24,1468,3580,1745187374405758041
6428998,2953,22,1456,3573,1745187374405758041
6429997,2984,25,1445,3569,1745187374405758041
6430997,3012,22,1434,3566,1745187374405758041
6431997,3041,22,1422,3564,1745187374405758041
6432997,3072,21,1413,3568,1745187374405758041
6433997,3098,22,1403,3569,1745187374405758041
6434997,3125,21,1394,3568,1745187374405758041
6435997,3153,22,1385,3565,1745187374405758041
6436997,3180,21,1376,3558,1745187374405758041
6437997,3210,21,1365,3550,1745187374405758041
6438997,3238,22,1356,3538,1745187374405758041
6439997,3268,22,1346,3526,1745187374405758041
6440997,3298,22,1338,3512,1745187374405758041
6441998,3329,22,1329,3499,1745187374405758041
6442998,3357,23,1322,3481,1745187374405758041
6443998,3387,22,1315,3465,1745187374405758041
6444998,3414,22,1308,3450,1745187374405758041
6445998,3441,24,1299,3436,1745187374405758041
6446998,3463,25,1292,3427,1745187374405758041
6447998,3484,37,1285,3417,1745187374405758041
6448998,3505,58,1278,3406,1745187374405758041
6449998,3524,72,1270,3398,1745187374462327993
6450998,3544,76,1264,3390,1745187374462327993
6451998,3556,72,1257,3386,1745187374462327993
6452998,3573,70,1250,3382,1745187374462327993
6453999,3583,76,1243,3379,1745187374462327993
6454999,3591,84,1237,3371,1745187374462327993
6455999,3605,98,1230,3364,1745187374462327993
6456999,3621,129,1226,3354,1745187374462327993
6457999,3635,169,1220,3340,1745187374462327993
6458999,3654,216,1214,3325,1745187374462327993
6459999,3672,260,1211,3308,1745187374462327993
6460999,3693,306,1204,3286,1745187374462327993
6461999,3710,352,1203,3275,1745187374462327993
6462999,3732,402,1198,3253,1745187374462327993
6463999,3748,444,1194,3275,1745187374462327993
6464999,3811,489,1201,3250,1745187374462327993
6466000,3812,511,1185,3194,1745187374462327993
6467000,3780,525,1187,3182,1745187374462327993
6468000,3791,541,1188,3171,1745187374462327993
6469000,3802,554,1187,3160,1745187374462327993
6470000,3855,571,1184,3187,1745187374462327993
6471000,3816,589,1180,3182,1745187374462327993
6472000,3826,600,1178,3130,1745187374462327993
6473000,3841,600,1176,3125,1745187374462327993
6474000,3849,592,1173,3120,1745187374462327993
6475000,3855,590,1171,3113,1745187374462327993
6476000,3859,587,1171,3104,1745187374462327993
6477000,3865,580,1169,3091,1745187374462327993
6478001,3872,579,1169,3077,1745187374462327993
6479001,3879,602,1169,3062,1745187374462327993
6480001,3891,637,1167,3048,1745187374462327993
6481001,3902,673,1166,3034,1745187374462327993
6482001,3909,709,1168,3017,1745187374462327993
6483001,3914,754,1165,2997,1745187374462327993
6484001,3923,806,1164,2980,1745187374462327993
6485001,3936,856,1164,2960,1745187374462327993
6486001,3941,891,1164,2944,1745187374462327993
6487001,3944,918,1165,2930,1745187374462327993
6488001,3945,937,1168,2915,1745187374462327993
6489001,3942,953,1170,2905,1745187374462327993
6490002,3940,964,1173,2891,1745187374462327993
6491002,3940,973,1177,2881,1745187374462327993
6492002,3937,976,1179,2871,1745187374462327993
6493002,3932,976,1178,2861,1745187374462327993
6494002,3929,977,1174,2852,1745187374462327993
6495002,3923,979,1170,2844,1745187374462327993
6496002,3920,980,1166,2836,1745187374462327993
6497002,3920,989,1165,2826,1745187374462327993
6498002,3922,1007,1165,2813,1745187374462327993
6499002,3926,1033,1165,2803,1745187374462327993
6500002,3931,1067,1168,2789,1745187374462327993
6501002,3937,1108,1174,2774,1745187374462327993
6502003,3944,1149,1181,2758,1745187374462327993
6503003,3951,1188,1188,2742,1745187374462327993
6504003,3954,1223,1196,2725,1745187374462327993
6505003,3957,1258,1201,2712,1745187374462327993
6506003,3957,1286,1203,2699,1745187374462327993
6507003,3955,1308,1204,2688,1745187374462327993
6508003,3954,1325,1204,2676,1745187374523985867
6509003,3950,1337,1204,2669,1745187374523985867
6510003,3942,1344,1205,2660,1745187374523985867
6511003,3936,1347,1208,2651,1745187374523985867
6512003,3925,1344,1211,2646,1745187374523985867
6513003,3916,1337,1213,2642,1745187374523985867
6514004,3906,1326,1214,2638,1745187374523985867
6515004,3897,1323,1217,2633,1745187374523985867
6516004,3888,1330,1220,2625,1745187374523985867
6517004,3881,1345,1225,2620,1745187374523985867
6518004,3876,1362,1227,2609,1745187374523985867
6519004,3874,1386,1232,2598,1745187374523985867
6520004,3872,1414,1236,2586,1745187374523985867
6521004,3869,1458,1253,2595,1745187374523985867
6522004,3915,1480,1248,2543,1745187374523985867
6523004,3855,1498,1244,2565,1745187374523985867
6524004,3901,1539,1258,2552,1745187374523985867
6525004,3817,1549,1251,2512,1745187374523985867
6526005,3846,1581,1272,2499,1745187374523985867
6527005,3841,1605,1268,2494,1745187374523985867
6528005,3839,1620,1275,2486,1745187374523985867
6529005,3832,1635,1281,2479,1745187374523985867
6530005,3826,1656,1288,2474,1745187374523985867
6531005,3816,1674,1292,2469,1745187374523985867
6532005,3805,1684,1297,2466,1745187374523985867
6533005,3796,1683,1299,2464,1745187374523985867
6534005,3780,1676,1304,2461,1745187374523985867
6535005,3770,1667,1307,2459,1745187374523985867
6536005,3758,1662,1310,2455,1745187374523985867
6537005,3748,1674,1314,2446,1745187374523985867
6538006,3747,1687,1317,2435,1745187374523985867
6539006,3742,1697,1323,2429,1745187374523985867
6540006,3739,1713,1326,2416,1745187374523985867
6541006,3734,1735,1330,2403,1745187374523985867
6542006,3731,1762,1334,2388,1745187374523985867
6543006,3728,1792,1339,2374,1745187374523985867
6544006,3724,1824,1344,2360,1745187374523985867
6545006,3720,1852,1349,2347,1745187374523985867
6546006,3714,1875,1353,2333,1745187374523985867
6547006,3707,1894,1356,2324,1745187374523985867
6548006,3698,1903,1360,2316,1745187374523985867
6549006,3684,1909,1365,2308,1745187374523985867
6550007,3670,1908,1371,2305,1745187374523985867
6551007,3657,1894,1377,2299,1745187374523985867
6552007,3644,1881,1385,2296,1745187374523985867
6553007,3628,1859,1390,2293,1745187374523985867
6554007,3610,1842,1397,2294,1745187374523985867
6555007,3595,1842,1403,2294,1745187374523985867
6556007,3583,1849,1409,2290,1745187374523985867
6557007,3579,1864,1413,2288,1745187374523985867
6558007,3571,1891,1419,2281,1745187374523985867
6559007,3562,1928,1423,2270,1745187374523985867
6560007,3552,1968,1428,2259,1745187374523985867
6561007,3548,1995,1432,2248,1745187374523985867
6562009,3545,2012,1439,2236,1745187374523985867
6563008,3543,2021,1445,2226,1745187374523985867
6564008,3541,2025,1450,2216,1745187374523985867
6565008,3540,2026,1457,2208,1745187374523985867
6566008,3537,2026,1463,2199,1745187374578937917
6567008,3525,2022,1469,2192,1745187374578937917
6568008,3517,2016,1477,2186,1745187374578937917
6569008,3501,2024,1483,2181,1745187374578937917
6570008,3488,2037,1490,2177,1745187374578937917
6571009,3474,2049,1496,2171,1745187374578937917
6572008,3458,2042,1501,2170,1745187374578937917
6573008,3440,2025,1506,2171,1745187374578937917
6574009,3421,2004,1510,2170,1745187374578937917
6575009,3404,1988,1514,2170,1745187374578937917
6576009,3388,1977,1516,2169,1745187374578937917
6577009,3373,1970,1510,2165,1745187374578937917
6578009,3361,1971,1533,2165,1745187374578937917
6579009,3353,1986,1535,2161,1745187374578937917
6580009,3342,2011,1537,2150,1745187374578937917
6581009,3313,2037,1541,2144,1745187374578937917
6582009,3334,2076,1538,2133,1745187374578937917
6583009,3366,2142,1560,2144,1745187374578937917
6584009,3357,2162,1537,2105,1745187374578937917
6585009,3307,2156,1548,2096,1745187374578937917
6586010,3299,2171,1553,2088,1745187374578937917
6587010,3290,2189,1561,2082,1745187374578937917
6588010,3283,2206,1565,2076,1745187374578937917
6589010,3270,2208,1569,2072,1745187374578937917
6590010,3260,2187,1573,2067,1745187374578937917
6591010,3246,2146,1573,2065,1745187374578937917
6592010,3231,2129,1580,2067,1745187374578937917
6593010,3217,2118,1584,2069,1745187374578937917
6594010,3202,2117,1587,2074,1745187374578937917
6595010,3186,2118,1592,2077,1745187374578937917
6596010,3172,2117,1597,2080,1745187374578937917
6597010,3163,2118,1604,2080,1745187374578937917
6598011,3152,2124,1609,2076,1745187374578937917
6599011,3142,2137,1615,2072,1745187374578937917
6600011,3136,2157,1622,2061,1745187374578937917
6601011,3127,2180,1629,2054,1745187374578937917
6602011,3120,2206,1633,2040,1745187374578937917
6603011,3112,2230,1638,2029,1745187374578937917
6604011,3106,2256,1649,2018,1745187374578937917
6605011,3097,2276,1647,2007,1745187374578937917
6606011,3089,2293,1651,1997,1745187374578937917
6607011,3078,2304,1654,1990,1745187374578937917
6608011,3070,2308,1659,1985,1745187374578937917
6609011,3056,2306,1664,1985,1745187374578937917
6610012,3043,2299,1672,1979,1745187374578937917
6611012,3030,2286,1677,1975,1745187374578937917
6612012,3016,2269,1683,1972,1745187374578937917
6613012,3002,2245,1688,1973,1745187374578937917
6614012,2986,2218,1694,1972,1745187374578937917
6615012,2971,2191,1696,1976,1745187374578937917
6616012,2957,2170,1700,1980,1745187374578937917
6617012,2945,2165,1705,1981,1745187374578937917
6618012,2938,2180,1708,1986,1745187374578937917
6619012,2927,2200,1714,1989,1745187374578937917
6620012,2921,2220,1716,1988,1745187374578937917
6621012,2913,2236,1718,1985,1745187374578937917
6622013,2906,2248,1723,1978,1745187374578937917
6623013,2898,2271,1729,1971,1745187374578937917
6624013,2891,2309,1732,1962,1745187374639964495
6625013,2885,2344,1737,1954,1745187374639964495
6626013,2877,2361,1740,1947,1745187374639964495
6627013,2868,2365,1743,1944,1745187374639964495
6628013,2859,2357,1746,1941,1745187374639964495
6629013,2843,2346,1748,1939,1745187374639964495
6630013,2833,2333,1754,1939,1745187374639964495
6631013,2819,2317,1760,1939,1745187374639964495
6632013,2806,2301,1763,1940,1745187374639964495
6633013,2792,2278,1769,1944,1745187374639964495
6634014,2778,2255,1772,1948,1745187374639964495
6635015,2762,2233,1777,1949,1745187374639964495
6636014,2752,2217,1778,1950,1745187374639964495
6637014,2742,2209,1782,1952,1745187374639964495
6638014,2773,2236,1800,1964,1745187374639964495
6639014,2753,2194,1774,1936,1745187374639964495
6640014,2713,2233,1786,1933,1745187374639964495
6641014,2708,2254,1792,1930,1745187374639964495
6642014,2705,2278,1797,1923,1745187374639964495
6643014,2701,2312,1801,1917,1745187374639964495
6644014,2697,2332,1810,1913,1745187374639964495
6645014,2694,2354,1816,1908,1745187374639964495
6646015,2690,2368,1821,1905,1745187374639964495
6647015,2682,2376,1824,1903,1745187374639964495
6648015,2673,2384,1825,1902,1745187374639964495
6649015,2662,2379,1826,1901,1745187374639964495
6650015,2649,2373,1826,1901,1745187374639964495
6651015,2637,2356,1826,1902,1745187374639964495
6652015,2624,2324,1828,1901,1745187374639964495
6653015,2609,2286,1829,1904,1745187374639964495
6654015,2594,2256,1833,1913,1745187374639964495
6655015,2579,2240,1837,1921,1745187374639964495
6656015,2568,2233,1841,1929,1745187374639964495
6657015,2559,2229,1843,1936,1745187374639964495
6658016,2558,2235,1848,1937,1745187374639964495
6659016,2548,2250,1852,1936,1745187374639964495
6660016,2541,2270,1858,1926,1745187374639964495
6661016,2536,2292,1864,1921,1745187374639964495
6662016,2532,2317,1872,1917,1745187374639964495
6663016,2530,2344,1881,1911,1745187374639964495
6664016,2525,2368,1889,1907,1745187374639964495
6665016,2521,2385,1894,1902,1745187374639964495
6666016,2518,2395,1899,1896,1745187374639964495
6667016,2514,2398,1902,1888,1745187374639964495
6668016,2510,2395,1902,1885,1745187374639964495
6669016,2500,2386,1901,1887,1745187374639964495
6670017,2490,2374,1896,1895,1745187374639964495
6671017,2480,2354,1896,1906,1745187374639964495
6672017,2470,2333,1897,1917,1745187374639964495
6673018,2473,2308,1899,1921,1745187374639964495
6674017,2449,2283,1898,1922,1745187374639964495
6675017,2437,2262,1902,1917,1745187374639964495
6676017,2427,2247,1905,1913,1745187374639964495
6677017,2418,2238,1908,1907,1745187374639964495
6678017,2412,2237,1912,1899,1745187374639964495
6679017,2406,2244,1914,1893,1745187374639964495
6680017,2402,2258,1916,1892,1745187374639964495
6681017,2400,2276,1918,1893,1745187374639964495
6682018,2397,2298,1921,1894,1745187374699544940
6683018,2396,2317,1925,1892,1745187374699544940
6684018,2394,2333,1930,1892,1745187374699544940
6685018,2389,2345,1936,1890,1745187374699544940
6686018,2387,2349,1938,1888,1745187374699544940
6687018,2381,2360,1941,1889,1745187374699544940
6688018,2376,2363,1944,1891,1745187374699544940
6689018,2369,2368,1945,1898,1745187374699544940
6690018,2363,2380,1949,1906,1745187374699544940
6691018,2361,2384,1950,1916,1745187374699544940
6692018,2352,2370,1948,1924,1745187374699544940
6693018,2341,2348,1948,1929,1745187374699544940
6694020,2355,2314,1948,1932,1745187374699544940
6695019,2317,2324,1944,1932,1745187374699544940
6696019,2305,2272,1947,1926,1745187374699544940
6697020,2298,2254,1948,1917,1745187374699544940
6698019,2292,2245,1947,1910,1745187374699544940
6699019,2314,2269,1968,1932,1745187374699544940
6700019,2313,2272,1946,1912,1745187374699544940
6701019,2281,2255,1963,1923,1745187374699544940
6702019,2282,2289,1974,1931,1745187374699544940
6703019,2284,2320,1982,1934,1745187374699544940
6704019,2282,2356,1986,1929,1745187374699544940
6705019,2282,2390,1981,1917,1745187374699544940
6706020,2276,2407,1978,1895,1745187374699544940
6707020,2270,2401,1972,1873,1745187374699544940
6708020,2266,2378,1965,1853,1745187374699544940
6709020,2258,2344,1963,1841,1745187374699544940
6710020,2249,2314,1964,1838,1745187374699544940
6711020,2237,2306,1970,1843,1745187374699544940
6712020,2229,2302,1975,1851,1745187374699544940
6713020,2221,2285,1982,1860,1745187374699544940
6714020,2214,2261,1987,1869,1745187374699544940
6715020,2206,2233,1992,1875,1745187374699544940
6716020,2198,2211,1993,1881,1745187374699544940
6717020,2192,2193,1994,1884,1745187374699544940
6718021,2188,2183,1994,1886,1745187374699544940
6719021,2184,2187,1991,1888,1745187374699544940
6720021,2182,2196,1987,1894,1745187374699544940
6721021,2181,2217,1985,1902,1745187374699544940
6722021,2180,2243,1984,1912,1745187374699544940
6723021,2181,2273,1982,1917,1745187374699544940
6724021,2179,2305,1986,1915,1745187374699544940
6725021,2179,2326,1992,1910,1745187374699544940
6726021,2179,2332,2001,1905,1745187374699544940
6727021,2176,2326,2011,1899,1745187374699544940
6728021,2171,2303,2021,1896,1745187374699544940
6729021,2163,2274,2029,1892,1745187374699544940
6730022,2157,2264,2034,1889,1745187374699544940
6731022,2149,2268,2038,1888,1745187374699544940
6732022,2142,2270,2043,1891,1745187374699544940
6733022,2134,2275,2045,1894,1745187374699544940
6734022,2126,2281,2048,1898,1745187374699544940
6735022,2117,2270,2048,1899,1745187374699544940
6736022,2109,2248,2048,1899,1745187374699544940
6737022,2102,2233,2049,1897,1745187374699544940
6738022,2099,2233,2048,1898,1745187374699544940
6739022,2099,2247,2050,1900,1745187374699544940
6740022,2101,2268,2050,1905,1745187374753943818
6741022,2102,2286,2051,1904,1745187374753943818
6742023,2104,2297,2050,1899,1745187374753943818
6743023,2105,2313,2049,1894,1745187374753943818
6744023,2104,2333,2051,1885,1745187374753943818
6745023,2102,2353,2053,1881,1745187374753943818
6746023,2099,2365,2056,1877,1745187374753943818
6747024,2102,2369,2060,1876,1745187374753943818
6748024,2093,2364,2065,1876,1745187374753943818
6749023,2088,2353,2070,1880,1745187374753943818
6750023,2081,2339,2074,1882,1745187374753943818
6751023,2073,2321,2076,1886,1745187374753943818
6752025,2063,2297,2077,1893,1745187374753943818
6753024,2057,2270,2078,1901,1745187374753943818
6754024,2050,2242,2080,1903,1745187374753943818
6755024,2037,2216,2078,1912,1745187374753943818
6756024,2031,2196,2080,1915,1745187374753943818
6757024,2027,2186,2081,1916,1745187374753943818
6758024,2026,2184,2102,1934,1745187374753943818
6759024,2041,2209,2105,1926,1745187374753943818
6760024,2005,2198,2086,1904,1745187374753943818
6761024,2017,2229,2091,1900,1745187374753943818
6762024,2020,2262,2093,1897,1745187374753943818
6763024,2024,2299,2093,1892,1745187374753943818
6764024,2026,2353,2084,1891,1745187374753943818
6765024,2025,2349,2082,1888,1745187374753943818
6766025,2027,2354,2077,1883,1745187374753943818
6767025,2028,2350,2074,1882,1745187374753943818
6768025,2027,2352,2070,1882,1745187374753943818
6769025,2021,2355,2070,1879,1745187374753943818
6770025,2015,2345,2070,1880,1745187374753943818
6771025,2009,2314,2072,1878,1745187374753943818
6772025,2000,2267,2073,1882,1745187374753943818
6773025,1992,2211,2073,1888,1745187374753943818
6774025,1984,2161,2076,1897,1745187374753943818
6775025,1976,2124,2076,1907,1745187374753943818
6776025,1970,2109,2077,1916,1745187374753943818
6777025,1965,2101,2078,1924,1745187374753943818
6778026,1964,2098,2081,1930,1745187374753943818
6779026,1961,2099,2084,1930,1745187374753943818
6780026,1962,2116,2087,1929,1745187374753943818
6781026,1960,2151,2090,1922,1745187374753943818
6782026,1962,2195,2092,1910,1745187374753943818
6783026,1962,2238,2093,1897,1745187374753943818
6784026,1963,2274,2093,1884,1745187374753943818
6785026,1964,2301,2093,1872,1745187374753943818
6786026,1962,2322,2095,1862,1745187374753943818
6787026,1961,2337,2097,1852,1745187374753943818
6788026,1962,2344,2097,1846,1745187374753943818
6789026,1957,2331,2096,1846,1745187374753943818
6790027,1953,2302,2096,1853,1745187374753943818
6791027,1948,2267,2094,1864,1745187374753943818
6792027,1944,2234,2092,1882,1745187374753943818
6793027,1937,2190,2090,1902,1745187374753943818
6794027,1931,2147,2089,1926,1745187374753943818
6795027,1924,2114,2085,1945,1745187374753943818
6796027,1917,2089,2083,1955,1745187374753943818
6797027,1913,2094,2082,1960,1745187374753943818
6798027,1912,2147,2082,1958,1745187374814052332
6799027,1916,2213,2082,1955,1745187374814052332
6800027,1923,2257,2083,1950,1745187374814052332
6801027,1931,2272,2082,1946,1745187374814052332
6802028,1938,2267,2082,1939,1745187374814052332
6803028,1942,2246,2083,1932,1745187374814052332
6804028,1946,2208,2084,1926,1745187374814052332
6805028,1947,2163,2085,1923,1745187374814052332
6806028,1950,2139,2088,1925,1745187374814052332
6807028,1952,2148,2088,1930,1745187374814052332
6808028,1950,2172,2092,1939,1745187374814052332
6809028,1947,2200,2096,1946,1745187374814052332
6810028,1944,2224,2101,1955,1745187374814052332
6811028,1939,2239,2106,1968,1745187374814052332
6812028,1934,2240,2112,1976,1745187374814052332
6813029,1928,2248,2142,2014,1745187374814052332
6814029,1945,2160,2100,1994,1745187374814052332
6815029,1910,2152,2113,2009,1745187374814052332
6816029,1909,2136,2112,2024,1745187374814052332
6817029,1909,2131,2106,2035,1745187374814052332
6818029,1914,2131,2102,2036,1745187374814052332
6819029,1916,2139,2093,2038,1745187374814052332
6820029,1923,2138,2088,2027,1745187374814052332
6821029,1930,2169,2086,2005,1745187374814052332
6822029,1936,2190,2088,1981,1745187374814052332
6823029,1942,2214,2093,1952,1745187374814052332
6824029,1947,2237,2097,1922,1745187374814052332
6825029,1949,2257,2101,1896,1745187374814052332
6826030,1949,2265,2104,1882,1745187374814052332
6827030,1948,2272,2106,1875,1745187374814052332
6828030,1949,2271,2107,1868,1745187374814052332
6829030,1945,2261,2105,1853,1745187374814052332
6830030,1944,2234,2100,1838,1745187374814052332
6831030,1941,2181,2093,1828,1745187374814052332
6832030,1937,2110,2085,1821,1745187374814052332
6833030,1931,2033,2075,1819,1745187374814052332
6834030,1924,1995,2066,1825,1745187374814052332
6835030,1918,2032,2066,1845,1745187374814052332
6836030,1915,2124,2070,1880,1745187374814052332
6837030,1915,2205,2085,1922,1745187374814052332
6838031,1915,2229,2104,1971,1745187374814052332
6839031,1913,2216,2123,2010,1745187374814052332
6840031,1914,2197,2137,2029,1745187374814052332
6841031,1915,2193,2144,2025,1745187374814052332
6842031,1916,2201,2148,2002,1745187374814052332
6843031,1924,2232,2147,1969,1745187374814052332
6844031,1926,2280,2145,1938,1745187374814052332
6845031,1929,2322,2141,1915,1745187374814052332
6846031,1931,2354,2139,1904,1745187374814052332
6847031,1930,2368,2141,1906,1745187374814052332
6848031,1930,2368,2146,1922,1745187374814052332
6849031,1924,2358,2153,1944,1745187374814052332
6850032,1918,2344,2155,1970,1745187374814052332
6851032,1913,2324,2154,1997,1745187374814052332
6852032,1906,2301,2153,2024,1745187374814052332
6853032,1900,2272,2148,2043,1745187374814052332
6854032,1893,2241,2140,2054,1745187374814052332
6855032,1888,2212,2129,2057,1745187374814052332
6856032,1887,2188,2116,2065,1745187374873186792
6857032,1886,2170,2102,2082,1745187374873186792
6858032,1889,2162,2092,2104,1745187374873186792
6859032,1893,2157,2085,2123,1745187374873186792
6860032,1902,2159,2082,2137,1745187374873186792
6861032,1905,2166,2082,2142,1745187374873186792
6862033,1909,2184,2091,2132,1745187374873186792
6863033,1912,2206,2108,2099,1745187374873186792
6864033,1912,2226,2125,2034,1745187374873186792
6865033,1912,2243,2136,1948,1745187374873186792
6866033,1910,2256,2127,1861,1745187374873186792
6867033,1909,2260,2104,1798,1745187374873186792
6868033,1909,2261,2076,1768,1745187374873186792
6869033,1910,2258,2051,1777,1745187374873186792
6870033,1913,2242,2041,1819,1745187374873186792
6871034,1915,2210,2044,1891,1745187374873186792
6872033,1908,2186,2064,1946,1745187374873186792
6873033,1923,2164,2113,2014,1745187374873186792
6874034,1915,2056,2131,2068,1745187374873186792
6875034,1902,2052,2108,2070,1745187374873186792
6876034,1865,2017,2157,2132,1745187374873186792
6877034,1883,1955,2122,2113,1745187374873186792
6878034,1860,1971,2156,2118,1745187374873186792
6879034,1867,1984,2131,2117,1745187374873186792
6880034,1875,2001,2117,2104,1745187374873186792
6881034,1884,2022,2102,2082,1745187374873186792
6882034,1892,2049,2078,2054,1745187374873186792
6883034,1899,2076,2061,2016,1745187374873186792
6884034,1904,2105,2051,1974,1745187374873186792
6885034,1907,2125,2057,1936,1745187374873186792
6886035,1908,2138,2076,1903,1745187374873186792
6887035,1907,2142,2102,1886,1745187374873186792
6888035,1904,2138,2132,1878,1745187374873186792
6889035,1897,2129,2156,1884,1745187374873186792
6890035,1888,2117,2176,1906,1745187374873186792
6891035,1880,2100,2178,1942,1745187374873186792
6892035,1873,2083,2162,1986,1745187374873186792
6893035,1870,2063,2130,2030,1745187374873186792
6894035,1872,2041,2082,2067,1745187374873186792
6895035,1876,2026,2020,2089,1745187374873186792
6896035,1882,2013,1965,2090,1745187374873186792
6897035,1888,2010,1939,2072,1745187374873186792
6898036,1893,2012,1957,2035,1745187374873186792
6899036,1899,2021,2017,1990,1745187374873186792
6900036,1905,2035,2098,1944,1745187374873186792
6901036,1909,2054,2168,1905,1745187374873186792
6902036,1909,2076,2213,1881,1745187374873186792
6903036,1906,2102,2232,1871,1745187374873186792
6904036,1891,2126,2230,1873,1745187374873186792
6905036,1862,2147,2211,1885,1745187374873186792
6906036,1825,2157,2185,1902,1745187374873186792
6907036,1793,2161,2153,1921,1745187374873186792
6908036,1771,2160,2131,1938,1745187374873186792
6909036,1769,2152,2129,1955,1745187374873186792
6910037,1784,2137,2139,1974,1745187374873186792
6911037,1808,2117,2149,1993,1745187374873186792
6912037,1841,2093,2140,2005,1745187374873186792
6913037,1873,2065,2101,2009,1745187374873186792
6914037,1900,2035,2043,2003,1745187374928175196
6915037,1921,2012,1981,1989,1745187374928175196
6916037,1935,1995,1970,1976,1745187374928175196
6917037,1944,1987,2015,1971,1745187374928175196
6918037,1948,1988,2099,1989,1745187374928175196
6919037,1942,2001,2189,2013,1745187374928175196
6920037,1936,2018,2256,2031,1745187374928175196
6921037,1937,2037,2277,2033,1745187374928175196
6922038,1942,2062,2260,2012,1745187374928175196
6923038,1944,2084,2210,1984,1745187374928175196
6924038,1945,2105,2152,1970,1745187374928175196
6925038,1946,2117,2107,1982,1745187374928175196
6926038,1947,2123,2076,2024,1745187374928175196
6927039,1944,2117,2054,2075,1745187374928175196
6928038,1939,2108,2035,2124,1745187374928175196
6929038,1934,2092,2018,2160,1745187374928175196
6930038,1929,2076,2011,2188,1745187374928175196
6931038,1926,2056,2010,2193,1745187374928175196
6932038,1906,2032,2046,2208,1745187374928175196
6933038,1937,2034,2009,2136,1745187374928175196
6934039,1905,1982,2027,2096,1745187374928175196
6935039,1909,1966,2010,2041,1745187374928175196
6936039,1912,1956,1989,1990,1745187374928175196
6937039,1900,1951,1986,1961,1745187374928175196
6938039,1882,1955,1993,1970,1745187374928175196
6939039,1862,1970,2033,1987,1745187374928175196
6940039,1856,1988,2088,1994,1745187374928175196
6941039,1842,2005,2133,1986,1745187374928175196
6942039,1800,2024,2166,1963,1745187374928175196
6943039,1742,2044,2185,1924,1745187374928175196
6944039,1693,2064,2196,1885,1745187374928175196
6945039,1666,2082,2216,1854,1745187374928175196
6946040,1668,2094,2250,1837,1745187374928175196
6947040,1701,2104,2281,1832,1745187374928175196
6948040,1763,2106,2294,1845,1745187374928175196
6949040,1834,2102,2290,1872,1745187374928175196
6950040,1914,2093,2278,1901,1745187374928175196
6951040,1988,2083,2267,1924,1745187374928175196
6952040,2048,2069,2256,1932,1745187374928175196
6953040,2088,2051,2236,1924,1745187374928175196
6954040,2118,2027,2208,1909,1745187374928175196
6955040,2138,2010,2163,1893,1745187374928175196
6956040,2145,1997,2110,1875,1745187374928175196
6957040,2142,1992,2058,1865,1745187374928175196
6958041,2137,1990,2009,1876,1745187374928175196
6959041,2132,1996,1973,1920,1745187374928175196
6960041,2125,2006,1962,1990,1745187374928175196
6961041,2115,2021,1961,2062,1745187374928175196
6962041,2105,2048,1958,2118,1745187374928175196
6963041,2097,2074,1933,2158,1745187374928175196
6964041,2088,2100,1882,2181,1745187374928175196
6965041,2083,2123,1826,2198,1745187374928175196
6966041,2073,2139,1791,2217,1745187374928175196
6967041,2064,2153,1819,2228,1745187374928175196
6968041,2050,2160,1916,2255,1745187374928175196
6969041,2012,2156,2058,2249,1745187374928175196
6970042,2011,2168,2189,2276,1745187374928175196
6971042,1993,2151,2270,2310,1745187374928175196
6972042,1985,2130,2286,2341,1745187375005792351
6973042,1982,2104,2252,2374,1745187375005792351
6974042,1984,2066,2200,2410,1745187375005792351
6975042,1984,2037,2154,2422,1745187375005792351
6976042,1973,2016,2128,2398,1745187375005792351
6977042,1957,2005,2113,2332,1745187375005792351
6978042,1937,2006,2098,2249,1745187375005792351
6979042,1917,2016,2098,2171,1745187375005792351
6980042,1901,2032,2099,2106,1745187375005792351
6981042,1880,2054,2122,2040,1745187375005792351
6982043,1854,2077,2150,1980,1745187375005792351
6983043,1828,2104,2173,1936,1745187375005792351
6984043,1810,2130,2189,1915,1745187375005792351
6985043,1802,2156,2198,1905,1745187375005792351
6986043,1808,2176,2188,1901,1745187375005792351
6987043,1828,2184,2168,1897,1745187375005792351
6988043,1844,2182,2145,1894,1745187375005792351
6989043,1846,2176,2122,1889,1745187375005792351
6990043,1848,2158,2127,1892,1745187375005792351
6991043,1875,2164,2097,1834,1745187375005792351
6992043,1852,2106,2060,1841,1745187375005792351
6993043,1850,2075,2060,1811,1745187375005792351
6994044,1843,2042,2066,1805,1745187375005792351
6995044,1835,2042,2101,1817,1745187375005792351
6996044,1854,1972,2068,1787,1745187375005792351
6997044,1835,1977,2085,1806,1745187375005792351
6998044,1856,1982,2083,1830,1745187375005792351
6999044,1878,1998,2075,1844,1745187375005792351
7000044,1900,2022,2073,1852,1745187375005792351
7001044,1920,2054,2074,1857,1745187375005792351
7002044,1943,2089,2070,1887,1745187375005792351
7003044,1977,2124,2059,1928,1745187375005792351
7004044,2011,2155,2048,1982,1745187375005792351
7005044,2039,2181,2041,2039,1745187375005792351
7006045,2061,2196,2040,2068,1745187375005792351
7007045,2073,2195,2025,2043,1745187375005792351
7008045,2075,2179,1995,1986,1745187375005792351
7009045,2067,2153,1958,1931,1745187375005792351
7010045,2060,2118,1920,1899,1745187375005792351
7011045,2053,2078,1888,1906,1745187375005792351
7012045,2044,2038,1878,1955,1745187375005792351
7013045,2041,1992,1903,2050,1745187375005792351
7014045,2037,1954,1954,2160,1745187375005792351
7015045,2039,1923,2010,2249,1745187375005792351
7016045,2027,1905,2055,2289,1745187375005792351
7017045,2024,1896,2081,2282,1745187375005792351
7018046,2001,1900,2092,2245,1745187375005792351
7019046,1971,1915,2100,2200,1745187375005792351
7020046,1944,1941,2106,2150,1745187375005792351
7021046,1917,1974,2115,2113,1745187375005792351
7022046,1894,2017,2119,2084,1745187375005792351
7023046,1882,2066,2120,2078,1745187375005792351
7024046,1877,2118,2118,2086,1745187375005792351
7025046,1880,2168,2118,2101,1745187375005792351
7026046,1892,2209,2121,2115,1745187375005792351
7027046,1950,2241,2121,2120,1745187375005792351
7028046,2072,2260,2117,2109,1745187375005792351
7029046,2208,2264,2112,2095,1745187375005792351
7030047,2306,2251,2109,2080,1745187375046739581
7031047,2340,2219,2106,2066,1745187375046739581
7032047,2308,2169,2102,2063,1745187375046739581
7033047,2227,2104,2098,2076,1745187375046739581
7034047,2140,2033,2093,2107,1745187375046739581
7035047,2048,1968,2088,2142,1745187375046739581
7036047,1977,1914,2084,2180,1745187375046739581
7037047,1931,1876,2076,2210,1745187375046739581
7038047,1912,1855,2066,2210,1745187375046739581
7039047,1915,1849,2051,2173,1745187375046739581
7040047,1936,1853,2035,2112,1745187375046739581
7041047,1946,1865,2019,2039,1745187375046739581
7042048,1948,1884,2004,1980,1745187375046739581
7043048,1956,1912,1993,1939,1745187375046739581
7044048,1979,1942,1980,1912,1745187375046739581
7045048,2011,1967,1984,1872,1745187375046739581
7046048,2048,1995,1998,1805,1745187375046739581
7047048,2076,2020,2027,1729,1745187375046739581
7048048,2097,2034,2053,1690,1745187375046739581
7049048,2105,2030,2057,1705,1745187375046739581
7050048,2107,2013,2029,1769,1745187375046739581
7051048,2098,1988,1980,1858,1745187375046739581
7052048,2072,1960,1940,1965,1745187375046739581
7053048,2037,1926,1932,2065,1745187375046739581
7054049,2005,1898,1964,2131,1745187375046739581
7055049,1972,1875,2018,2147,1745187375046739581
7056049,1937,1859,2081,2130,1745187375046739581
7057049,1908,1848,2133,2103,1745187375046739581
7058049,1886,1846,2163,2082,1745187375046739581
7059049,1872,1859,2180,2074,1745187375046739581
7060049,1877,1884,2190,2067,1745187375046739581
7061049,1899,1921,2201,2053,1745187375046739581
7062049,1930,1968,2211,2038,1745187375046739581
7063049,1964,2024,2219,2024,1745187375046739581
7064049,1996,2082,2212,2005,1745187375046739581
7065049,2052,2162,2218,2023,1745187375046739581
7066050,2030,2160,2148,1995,1745187375046739581
7067050,2051,2208,2115,1992,1745187375046739581
7068050,2061,2230,2081,1987,1745187375046739581
7069050,2064,2244,2044,1978,1745187375046739581
7070050,2066,2267,2020,1971,1745187375046739581
7071050,2054,2236,2008,1966,1745187375046739581
7072050,2061,2219,2004,1964,1745187375046739581
7073050,2051,2193,2010,1955,1745187375046739581
7074050,2027,2160,2016,1939,1745187375046739581
7075050,1998,2128,2019,1913,1745187375046739581
7076050,1965,2101,2017,1892,1745187375046739581
7077050,1933,2083,2014,1886,1745187375046739581
7078051,1904,2077,2009,1888,1745187375046739581
7079051,1884,2084,2001,1892,1745187375046739581
7080051,1872,2101,1992,1902,1745187375046739581
7081051,1859,2128,1985,1926,1745187375046739581
7082051,1847,2162,1985,1956,1745187375046739581
7083052,1835,2204,1987,1981,1745187375046739581
7084051,1849,2246,1997,2009,1745187375046739581
7085054,1838,2285,2008,2032,1745187375046739581
7086051,1839,2313,2013,2061,1745187375046739581
7087051,1835,2331,2021,2091,1745187375046739581
7088051,1826,2336,2037,2124,1745187375108774535
7089051,1811,2329,2067,2145,1745187375108774535
7090052,1802,2314,2096,2142,1745187375108774535
7091052,1800,2287,2109,2101,1745187375108774535
7092052,1802,2249,2114,2031,1745187375108774535
7093052,1808,2201,2114,1964,1745187375108774535
7094052,1812,2149,2114,1905,1745187375108774535
7095052,1819,2101,2116,1860,1745187375108774535
7096052,1829,2059,2116,1847,1745187375108774535
7097052,1842,2024,2116,1874,1745187375108774535
7098052,1854,2002,2124,1931,1745187375108774535
7099052,1870,1997,2132,1985,1745187375108774535
7100052,1879,2005,2140,2008,1745187375108774535
7101052,1893,2026,2145,1993,1745187375108774535
7102053,1904,2057,2145,1958,1745187375108774535
7103054,1906,2094,2139,1905,1745187375108774535
7104053,1908,2133,2129,1840,1745187375108774535
7105053,1904,2168,2114,1793,1745187375108774535
7106053,1934,2238,2131,1820,1745187375108774535
7107053,1865,2191,2070,1834,1745187375108774535
7108053,1861,2218,2074,1922,1745187375108774535
7109053,1856,2224,2085,2028,1745187375108774535
7110053,1851,2220,2098,2126,1745187375108774535
7111053,1842,2209,2114,2182,1745187375108774535
7112053,1826,2184,2129,2192,1745187375108774535
7113053,1804,2148,2142,2168,1745187375108774535
7114054,1784,2109,2152,2124,1745187375108774535
7115054,1765,2074,2160,2065,1745187375108774535
7116054,1752,2042,2155,2021,1745187375108774535
7117054,1758,2028,2154,2012,1745187375108774535
7118054,1784,2027,2150,2027,1745187375108774535
7119054,1823,2043,2139,2058,1745187375108774535
7120054,1875,2072,2129,2077,1745187375108774535
7121054,1929,2107,2118,2081,1745187375108774535
7122054,1985,2147,2106,2064,1745187375108774535
7123054,2038,2190,2092,2032,1745187375108774535
7124054,2088,2227,2072,1972,1745187375108774535
7125054,2124,2255,2054,1916,1745187375108774535
7126055,2148,2272,2041,1884,1745187375108774535
7127055,2161,2281,2036,1881,1745187375108774535
7128055,2168,2281,2040,1892,1745187375108774535
7129055,2152,2275,2051,1920,1745187375108774535
7130055,2113,2262,2072,1974,1745187375108774535
7131055,2061,2248,2098,2064,1745187375108774535
7132055,2005,2224,2128,2158,1745187375108774535
7133055,1956,2190,2147,2233,1745187375108774535
7134055,1915,2151,2150,2290,1745187375108774535
7135055,1892,2118,2142,2332,1745187375108774535
7136055,1886,2094,2122,2351,1745187375108774535
7137055,1896,2079,2101,2349,1745187375108774535
7138056,1925,2077,2083,2353,1745187375108774535
7139056,1968,2092,2072,2355,1745187375108774535
7140056,2019,2116,2064,2341,1745187375108774535
7141056,2076,2145,2054,2317,1745187375108774535
7142056,2133,2178,2048,2290,1745187375108774535
7143056,2186,2208,2050,2256,1745187375108774535
7144056,2238,2232,2058,2204,1745187375108774535
7145056,2285,2245,2064,2134,1745187375108774535
7146056,2322,2246,2065,2058,1745187375163751325
7147056,2350,2236,2056,1998,1745187375163751325
7148056,2364,2217,2042,1970,1745187375163751325
7149056,2361,2193,2026,1993,1745187375163751325
7150057,2342,2164,2019,2056,1745187375163751325
7151057,2302,2137,2027,2139,1745187375163751325
7152057,2276,2102,2043,2220,1745187375163751325
7153057,2234,2059,2066,2274,1745187375163751325
7154057,2190,2018,2088,2291,1745187375163751325
7155057,2148,1979,2106,2270,1745187375163751325
7156057,2112,1947,2114,2234,1745187375163751325
7157057,2084,1927,2115,2203,1745187375163751325
7158057,2064,1923,2109,2188,1745187375163751325
7159057,2053,1933,2101,2195,1745187375163751325
7160057,2049,1960,2094,2212,1745187375163751325
7161057,2050,1997,2081,2231,1745187375163751325
7162058,2053,2044,2074,2229,1745187375163751325
7163058,2057,2096,2065,2211,1745187375163751325
7164058,2060,2147,2051,2185,1745187375163751325
7165058,2060,2193,2044,2166,1745187375163751325
7166058,2050,2238,2049,2171,1745187375163751325
7167058,2030,2270,2058,2216,1745187375163751325
7168058,2053,2329,2100,2245,1745187375163751325
7169058,1970,2277,2061,2210,1745187375163751325
7170058,1967,2291,2068,2195,1745187375163751325
7171058,1962,2284,2074,2153,1745187375163751325
7172058,1957,2266,2077,2085,1745187375163751325
7173058,1952,2235,2076,2005,1745187375163751325
7174059,1936,2192,2068,1917,1745187375163751325
7175059,1942,2160,2056,1843,1745187375163751325
7176059,1939,2129,2034,1804,1745187375163751325
7177059,1941,2109,2020,1794,1745187375163751325
7178059,1954,2104,2007,1794,1745187375163751325
7179059,1969,2112,1996,1786,1745187375163751325
7180059,1991,2130,1988,1778,1745187375163751325
7181059,2014,2157,1984,1770,1745187375163751325
7182059,2034,2195,1984,1763,1745187375163751325
7183059,2051,2243,1988,1770,1745187375163751325
7184059,2061,2297,2000,1820,1745187375163751325
7185059,2068,2352,2019,1905,1745187375163751325
7186060,2073,2404,2034,1979,1745187375163751325
7187060,2073,2443,2038,2020,1745187375163751325
7188060,2067,2462,2036,2027,1745187375163751325
7189060,2049,2469,2036,1998,1745187375163751325
7190060,2025,2460,2043,1911,1745187375163751325
7191060,1992,2437,2057,1782,1745187375163751325
7192060,1950,2400,2077,1657,1745187375163751325
7193060,1908,2353,2099,1581,1745187375163751325
7194060,1872,2302,2116,1555,1745187375163751325
7195060,1851,2246,2124,1579,1745187375163751325
7196060,1844,2198,2122,1641,1745187375163751325
7197060,1856,2158,2122,1725,1745187375163751325
7198061,1878,2133,2126,1798,1745187375163751325
7199061,1908,2120,2129,1844,1745187375163751325
7200061,1947,2114,2124,1870,1745187375163751325
7201061,1988,2120,2116,1882,1745187375163751325
7202061,2030,2142,2107,1881,1745187375163751325
7203061,2069,2174,2096,1869,1745187375163751325
7204061,2099,2214,2085,1865,1745187375233583812
7205061,2123,2245,2081,1888,1745187375233583812
7206061,2136,2268,2083,1947,1745187375233583812
7207061,2136,2281,2091,2034,1745187375233583812
7208061,2123,2282,2102,2141,1745187375233583812
7209061,2101,2277,2116,2244,1745187375233583812
7210062,2073,2264,2128,2321,1745187375233583812
7211062,2042,2236,2132,2355,1745187375233583812
7212062,2012,2190,2133,2358,1745187375233583812
7213062,1981,2128,2132,2356,1745187375233583812
7214062,1941,2062,2130,2349,1745187375233583812
7215062,1900,2000,2123,2323,1745187375233583812
7216062,1860,1953,2112,2270,1745187375233583812
7217062,1836,1920,2094,2197,1745187375233583812
7218062,1816,1899,2077,2112,1745187375233583812
7219062,1813,1893,2056,2018,1745187375233583812
7220063,1817,1894,2041,1937,1745187375233583812
7221062,1830,1906,2043,1870,1745187375233583812
7222063,1850,1930,2057,1802,1745187375233583812
7223063,1904,1995,2102,1774,1745187375233583812
7224063,1880,1976,2074,1728,1745187375233583812
7225063,1902,2020,2093,1755,1745187375233583812
7226063,1922,2049,2104,1816,1745187375233583812
7227063,1933,2067,2107,1915,1745187375233583812
7228063,1937,2080,2113,2040,1745187375233583812
7229063,1952,2086,2121,2152,1745187375233583812
7230063,1916,2088,2124,2217,1745187375233583812
7231063,1910,2080,2121,2238,1745187375233583812
7232063,1899,2062,2113,2229,1745187375233583812
7233063,1885,2034,2107,2202,1745187375233583812
7234064,1873,2002,2100,2166,1745187375233583812
7235064,1864,1972,2092,2131,1745187375233583812
7236064,1857,1942,2080,2108,1745187375233583812
7237064,1851,1920,2066,2099,1745187375233583812
7238064,1851,1905,2048,2100,1745187375233583812
7239064,1849,1907,2032,2101,1745187375233583812
7240064,1854,1928,2017,2088,1745187375233583812
7241064,1861,1957,2001,2052,1745187375233583812
7242064,1870,1992,1988,2002,1745187375233583812
7243064,1878,2030,1981,1955,1745187375233583812
7244064,1888,2065,1979,1921,1745187375233583812
7245064,1893,2089,1982,1901,1745187375233583812
7246065,1896,2107,1981,1915,1745187375233583812
7247065,1894,2117,1992,1960,1745187375233583812
7248065,1893,2120,2004,1990,1745187375233583812
7249065,1886,2113,2019,1984,1745187375233583812
7250065,1880,2093,2020,1926,1745187375233583812
7251065,1874,2067,2015,1836,1745187375233583812
7252065,1867,2026,2005,1751,1745187375233583812
7253065,1862,1976,1995,1706,1745187375233583812
7254065,1852,1920,1990,1725,1745187375233583812
7255065,1844,1864,2000,1824,1745187375233583812
7256065,1835,1819,2016,1979,1745187375233583812
7257065,1828,1796,2040,2145,1745187375233583812
7258066,1827,1792,2061,2280,1745187375233583812
7259066,1832,1801,2080,2376,1745187375233583812
7260066,1838,1815,2097,2440,1745187375233583812
7261066,1851,1835,2114,2468,1745187375233583812
7262066,1864,1860,2128,2444,1745187375285265788
7263066,1877,1891,2134,2376,1745187375285265788
7264066,1892,1925,2133,2292,1745187375285265788
7265066,1905,1957,2129,2210,1745187375285265788
7266066,1918,1982,2124,2150,1745187375285265788
7267066,1927,1996,2118,2130,1745187375285265788
7268066,1933,2001,2107,2157,1745187375285265788
7269066,1933,1999,2105,2211,1745187375285265788
7270067,1929,1987,2105,2259,1745187375285265788
7271067,1924,1969,2122,2285,1745187375285265788
7272067,1916,1944,2144,2292,1745187375285265788
7273067,1905,1917,2164,2290,1745187375285265788
7274067,1897,1892,2177,2286,1745187375285265788
7275067,1891,1875,2180,2273,1745187375285265788
7276067,1889,1868,2173,2259,1745187375285265788
7277067,1892,1870,2158,2223,1745187375285265788
7278068,1900,1884,2134,2165,1745187375285265788
7279067,1911,1909,2109,2110,1745187375285265788
7280067,1931,1944,2084,2068,1745187375285265788
7281067,1944,1969,2061,2052,1745187375285265788
7282068,1969,2009,2050,2042,1745187375285265788
7283068,1984,2049,2043,2013,1745187375285265788
7284068,1997,2083,2043,1952,1745187375285265788
7285068,2008,2113,2048,1867,1745187375285265788
7286068,2016,2134,2048,1777,1745187375285265788
7287068,2022,2150,2041,1714,1745187375285265788
7288068,2027,2159,2036,1713,1745187375285265788
7289068,2025,2161,2038,1780,1745187375285265788
7290068,2020,2157,2043,1890,1745187375285265788
7291068,2054,2187,2081,2033,1745187375285265788
7292068,2032,2112,2076,2122,1745187375285265788
7293068,2015,2130,2080,2122,1745187375285265788
7294069,1957,2051,2072,2152,1745187375285265788
7295069,1960,2007,2104,2149,1745187375285265788
7296071,1962,1962,2132,2158,1745187375285265788
7297069,1968,1922,2154,2195,1745187375285265788
7298069,1980,1893,2160,2253,1745187375285265788
7299069,1989,1877,2164,2309,1745187375285265788
7300069,2001,1872,2170,2350,1745187375285265788
7301069,2014,1864,2186,2359,1745187375285265788
7302069,2033,1863,2195,2337,1745187375285265788
7303069,2052,1868,2194,2290,1745187375285265788
7304069,2067,1885,2190,2241,1745187375285265788
7305069,2083,1909,2182,2202,1745187375285265788
7306070,2093,1941,2168,2177,1745187375285265788
7307070,2099,1973,2145,2169,1745187375285265788
7308070,2104,1992,2117,2179,1745187375285265788
7309070,2104,1988,2088,2202,1745187375285265788
7310070,2104,1968,2062,2227,1745187375285265788
7311070,2104,1934,2052,2235,1745187375285265788
7312070,2099,1892,2057,2205,1745187375285265788
7313070,2090,1847,2082,2154,1745187375285265788
7314070,2074,1804,2114,2090,1745187375285265788
7315070,2060,1761,2145,2029,1745187375285265788
7316070,2053,1720,2165,1990,1745187375285265788
7317070,2052,1684,2168,1966,1745187375285265788
7318071,2058,1654,2154,1936,1745187375285265788
7319071,2068,1636,2126,1876,1745187375285265788
7320071,2080,1631,2090,1788,1745187375345470342
7321071,2093,1643,2058,1714,1745187375345470342
7322071,2101,1667,2028,1679,1745187375345470342
7323071,2110,1700,2009,1693,1745187375345470342
7324071,2115,1746,2002,1761,1745187375345470342
7325071,2117,1802,2015,1878,1745187375345470342
7326071,2121,1864,2031,2011,1745187375345470342
7327071,2122,1914,2042,2089,1745187375345470342
7328071,2124,1947,2048,2094,1745187375345470342
7329071,2124,1961,2049,2065,1745187375345470342
7330072,2116,1957,2045,2033,1745187375345470342
7331072,2104,1939,2040,2026,1745187375345470342
7332072,2089,1913,2041,2064,1745187375345470342
7333072,2072,1884,2041,2146,1745187375345470342
7334072,2057,1856,2040,2240,1745187375345470342
7335072,2042,1825,2032,2318,1745187375345470342
7336072,2034,1804,2021,2345,1745187375345470342
7337072,2029,1788,2010,2302,1745187375345470342
7338072,2028,1789,2001,2224,1745187375345470342
7339072,2030,1808,1991,2121,1745187375345470342
7340072,2033,1843,1983,2005,1745187375345470342
7341072,2037,1881,1963,1888,1745187375345470342
7342073,2040,1921,1937,1806,1745187375345470342
7343073,2044,1962,1909,1767,1745187375345470342
7344073,2049,2000,1881,1786,1745187375345470342
7345073,2089,2018,1837,1746,1745187375345470342
7346073,2048,2051,1812,1755,1745187375345470342
7347073,2051,2073,1776,1739,1745187375345470342
7348073,2052,2092,1739,1684,1745187375345470342
7349073,2041,2107,1714,1634,1745187375345470342
7350073,2030,2116,1716,1628,1745187375345470342
7351073,2012,2130,1741,1705,1745187375345470342
7352073,1997,2145,1795,1816,1745187375345470342
7353073,1979,2165,1856,1933,1745187375345470342
7354074,1966,2186,1915,2030,1745187375345470342
7355074,1956,2204,1964,2109,1745187375345470342
7356074,1949,2208,2003,2189,1745187375345470342
7357074,1944,2225,2032,2274,1745187375345470342
7358074,1944,2241,2054,2334,1745187375345470342
7359074,1941,2264,2070,2356,1745187375345470342
7360074,1945,2286,2082,2303,1745187375345470342
7361074,1949,2308,2075,2180,1745187375345470342
7362074,1958,2328,2053,2028,1745187375345470342
7363074,1970,2358,2018,1914,1745187375345470342
7364074,1980,2395,1989,1874,1745187375345470342
7365074,1986,2434,1970,1911,1745187375345470342
7366075,1986,2472,1972,2011,1745187375345470342
7367075,1979,2510,2010,2118,1745187375345470342
7368075,1970,2542,2075,2176,1745187375345470342
7369075,1960,2559,2144,2160,1745187375345470342
7370075,1956,2559,2200,2082,1745187375345470342
7371075,1958,2515,2242,1981,1745187375345470342
7372075,1957,2435,2275,1904,1745187375345470342
7373075,1955,2342,2309,1866,1745187375345470342
7374075,1952,2259,2341,1862,1745187375345470342
7375075,1949,2205,2364,1899,1745187375345470342
7376075,1951,2190,2368,1966,1745187375345470342
7377075,1957,2233,2365,2023,1745187375345470342
7378076,1965,2346,2351,2038,1745187375396949559
7379076,1981,2534,2330,1979,1745187375396949559
7380076,2001,2734,2307,1876,1745187375396949559
7381076,2022,2927,2279,1794,1745187375396949559
7382076,2048,3089,2244,1769,1745187375396949559
7383076,2066,3207,2206,1810,1745187375396949559
7384076,2085,3285,2170,1901,1745187375396949559
7385076,2094,3328,2161,2018,1745187375396949559
7386076,2100,3325,2177,2142,1745187375396949559
7387076,2099,3280,2195,2238,1745187375396949559
7388076,2099,3197,2209,2300,1745187375396949559
7389076,2100,3097,2213,2329,1745187375396949559
7390077,2100,2982,2203,2313,1745187375396949559
7391077,2098,2859,2172,2235,1745187375396949559
7392077,2091,2735,2140,2131,1745187375396949559
7393077,2078,2609,2129,2044,1745187375396949559
7394077,2059,2501,2134,1972,1745187375396949559
7395077,2048,2390,2145,1932,1745187375396949559
7396077,2037,2293,2159,1958,1745187375396949559
7397077,2038,2211,2168,2058,1745187375396949559
7398077,2048,2145,2170,2171,1745187375396949559
7399077,2062,2094,2166,2239,1745187375396949559
7400077,2081,2050,2153,2216,1745187375396949559
7401077,2104,2012,2120,2096,1745187375396949559
7402078,2121,1976,2105,1968,1745187375396949559
7403078,2141,1948,2081,1851,1745187375396949559
7404078,2155,1930,2054,1785,1745187375396949559
7405078,2202,1960,2026,1776,1745187375396949559
7406078,2161,1927,2035,1804,1745187375396949559
7407078,2165,1937,2095,1842,1745187375396949559
7408078,2159,1936,2085,1849,1745187375396949559
7409078,2211,1986,2144,1845,1745187375396949559
7410078,2161,1952,2106,1822,1745187375396949559
7411079,2172,1960,2084,1844,1745187375396949559
7412079,2178,1954,2040,1926,1745187375396949559
7413078,2172,1939,1994,2054,1745187375396949559
7414079,2152,1923,1964,2206,1745187375396949559
7415080,2135,1910,1963,2344,1745187375396949559
7416079,2118,1899,1986,2448,1745187375396949559
7417079,2109,1882,2027,2501,1745187375396949559
7418079,2109,1856,2076,2494,1745187375396949559
7419079,2118,1813,2122,2419,1745187375396949559
7420079,2129,1760,2156,2322,1745187375396949559
7421079,2148,1686,2172,2257,1745187375396949559
7422079,2162,1598,2179,2252,1745187375396949559
7423079,2173,1510,2182,2262,1745187375396949559
7424079,2182,1409,2203,2227,1745187375396949559
7425079,2190,1304,2233,2148,1745187375396949559
7426080,2196,1197,2261,2089,1745187375396949559
7427080,2202,1094,2280,2069,1745187375396949559
7428080,2209,995,2277,2080,1745187375396949559
7429080,2213,908,2252,2102,1745187375396949559
7430080,2217,834,2216,2091,1745187375396949559
7431080,2213,778,2179,2015,1745187375396949559
7432080,2203,746,2152,1941,1745187375396949559
7433080,2186,736,2149,1905,1745187375396949559
7434080,2169,749,2179,1922,1745187375396949559
7435080,2152,782,2228,2022,1745187375396949559
7436080,2140,835,2288,2208,1745187375462175838
7437080,2133,912,2354,2428,1745187375462175838
7438081,2131,1017,2418,2616,1745187375462175838
7439081,2136,1141,2483,2730,1745187375462175838
7440081,2146,1285,2539,2746,1745187375462175838
7441081,2158,1459,2576,2689,1745187375462175838
7442081,2172,1661,2604,2596,1745187375462175838
7443081,2182,1896,2618,2514,1745187375462175838
7444081,2189,2132,2612,2405,1745187375462175838
7445081,2195,2328,2594,2262,1745187375462175838
7446081,2197,2461,2571,2100,1745187375462175838
7447081,2196,2517,2554,1940,1745187375462175838
7448081,2190,2493,2542,1833,1745187375462175838
7449081,2178,2402,2546,1810,1745187375462175838
7450082,2160,2272,2569,1858,1745187375462175838
7451082,2139,2112,2611,1932,1745187375462175838
7452082,2118,1933,2644,2004,1745187375462175838
7453082,2098,1744,2657,2069,1745187375462175838
7454083,2082,1550,2645,2121,1745187375462175838
7455082,2069,1375,2619,2142,1745187375462175838
7456083,2063,1208,2640,2161,1745187375462175838
7457082,2043,1060,2559,2077,1745187375462175838
7458084,2053,947,2529,2018,1745187375462175838
7459082,2058,858,2494,1967,1745187375462175838
7460082,2066,789,2459,1947,1745187375462175838
7461082,2074,739,2424,1964,1745187375462175838
7462083,2084,706,2384,2002,1745187375462175838
7463083,2090,692,2355,2006,1745187375462175838
7464083,2100,693,2314,1920,1745187375462175838
7465083,2107,704,2266,1775,1745187375462175838
7466083,2111,710,2216,1641,1745187375462175838
7467083,2108,713,2170,1585,1745187375462175838
7468083,2099,723,2136,1641,1745187375462175838
7469083,2082,742,2117,1792,1745187375462175838
7470083,2066,769,2117,1977,1745187375462175838
7471083,2052,804,2124,2158,1745187375462175838
7472083,2035,840,2127,2331,1745187375462175838
7473083,2016,874,2122,2475,1745187375462175838
7474084,1994,909,2123,2557,1745187375462175838
7475084,1973,944,2131,2559,1745187375462175838
7476084,1960,987,2142,2477,1745187375462175838
7477084,1950,1024,2143,2374,1745187375462175838
7478084,1947,1070,2117,2349,1745187375462175838
7479084,1953,1123,2074,2406,1745187375462175838
7480084,1964,1186,2019,2481,1745187375462175838
7481084,1980,1255,1965,2516,1745187375462175838
7482084,1996,1323,1922,2468,1745187375462175838
7483084,2010,1385,1901,2297,1745187375462175838
7484084,2020,1437,1911,2038,1745187375462175838
7485084,2027,1485,1944,1771,1745187375462175838
7486085,2028,1532,1987,1561,1745187375462175838
7487085,2021,1569,2019,1449,1745187375462175838
7488085,2007,1618,2037,1416,1745187375462175838
7489085,1994,1676,2056,1433,1745187375462175838
7490085,1984,1752,2066,1443,1745187375462175838
7491085,1978,1850,2060,1443,1745187375462175838
7492085,1974,1978,2037,1488,1745187375462175838
7493085,1968,2096,2005,1612,1745187375462175838
7494085,1960,2201,1974,1820,1745187375519776302
7495085,1950,2274,1950,2039,1745187375519776302
7496085,1944,2314,1930,2189,1745187375519776302
7497085,1945,2332,1905,2243,1745187375519776302
7498086,1949,2336,1872,2238,1745187375519776302
7499086,1956,2338,1834,2201,1745187375519776302
7500086,1969,2345,1802,2168,1745187375519776302
7501086,1981,2370,1766,2178,1745187375519776302
7502086,1990,2405,1738,2224,1745187375519776302
7503086,2000,2449,1709,2278,1745187375519776302
7504086,2008,2489,1685,2323,1745187375519776302
7505086,2014,2529,1673,2345,1745187375519776302
7506086,2019,2559,1674,2326,1745187375519776302
7507086,2022,2577,1677,2283,1745187375519776302
7508087,2022,2593,1675,2243,1745187375519776302
7509086,2014,2598,1684,2198,1745187375519776302
7510087,2008,2596,1690,2149,1745187375519776302
7511087,1998,2582,1692,2105,1745187375519776302
7512087,1989,2559,1696,2050,1745187375519776302
7513087,1981,2530,1689,1977,1745187375519776302
7514087,1971,2492,1694,1905,1745187375519776302
7515087,1962,2437,1686,1871,1745187375519776302
7516087,1961,2384,1672,1828,1745187375519776302
7517089,1966,2345,1645,1713,1745187375519776302
7518087,1978,2332,1598,1526,1745187375519776302
7519088,1998,2354,1552,1339,1745187375519776302
7520087,2020,2403,1525,1273,1745187375519776302
7521087,2059,2493,1508,1401,1745187375519776302
7522088,2088,2598,1513,1588,1745187375519776302
7523088,2062,2730,1538,1819,1745187375519776302
7524088,2074,2834,1573,1971,1745187375519776302
7525088,2085,2916,1605,2057,1745187375519776302
7526088,2096,2976,1626,2119,1745187375519776302
7527088,2101,2992,1632,2197,1745187375519776302
7528088,2100,3008,1633,2289,1745187375519776302
7529088,2098,2987,1634,2350,1745187375519776302
7530088,2091,2940,1634,2354,1745187375519776302
7531088,2082,2884,1632,2314,1745187375519776302
7532088,2074,2816,1622,2261,1745187375519776302
7533088,2065,2739,1605,2226,1745187375519776302
7534089,2060,2666,1585,2210,1745187375519776302
7535089,2056,2596,1562,2184,1745187375519776302
7536089,2058,2546,1536,2138,1745187375519776302
7537089,2064,2500,1534,2069,1745187375519776302
7538089,2072,2474,1545,1996,1745187375519776302
7539089,2082,2465,1601,1945,1745187375519776302
7540089,2096,2472,1686,1914,1745187375519776302
7541089,2109,2484,1782,1889,1745187375519776302
7542089,2123,2492,1864,1867,1745187375519776302
7543089,2139,2496,1924,1862,1745187375519776302
7544089,2154,2496,1960,1870,1745187375519776302
7545089,2166,2492,1960,1867,1745187375519776302
7546090,2179,2480,1942,1835,1745187375519776302
7547090,2189,2465,1907,1779,1745187375519776302
7548090,2195,2450,1864,1726,1745187375519776302
7549090,2204,2451,1812,1715,1745187375519776302
7550090,2202,2471,1772,1756,1745187375519776302
7551090,2197,2485,1753,1822,1745187375519776302
7552090,2188,2475,1763,1876,1745187375585982311
7553090,2176,2437,1790,1922,1745187375585982311
7554090,2161,2382,1817,1963,1745187375585982311
7555090,2147,2323,1835,1993,1745187375585982311
7556090,2137,2275,1848,2010,1745187375585982311
7557090,2132,2244,1841,2013,1745187375585982311
7558091,2134,2233,1824,2005,1745187375585982311
7559091,2142,2240,1808,1989,1745187375585982311
7560091,2158,2263,1805,1963,1745187375585982311
7561091,2170,2298,1819,1928,1745187375585982311
7562091,2185,2341,1830,1898,1745187375585982311
7563091,2196,2387,1824,1890,1745187375585982311
7564091,2208,2426,1796,1897,1745187375585982311
7565091,2217,2453,1750,1914,1745187375585982311
7566091,2222,2468,1702,1934,1745187375585982311
7567091,2222,2476,1659,1956,1745187375585982311
7568091,2218,2472,1620,1980,1745187375585982311
7569091,2210,2457,1594,2002,1745187375585982311
7570092,2201,2429,1579,1985,1745187375585982311
7571092,2192,2390,1571,1902,1745187375585982311
7572092,2181,2340,1578,1758,1745187375585982311
7573092,2171,2281,1588,1594,1745187375585982311
7574092,2158,2229,1617,1487,1745187375585982311
7575092,2142,2193,1650,1446,1745187375585982311
7576092,2137,2172,1684,1482,1745187375585982311
7577092,2133,2175,1706,1565,1745187375585982311
7578092,2141,2210,1740,1691,1745187375585982311
7579092,2145,2308,1752,1846,1745187375585982311
7580093,2140,2332,1721,2017,1745187375585982311
7581092,2163,2410,1718,2159,1745187375585982311
7582093,2179,2479,1709,2267,1745187375585982311
7583093,2196,2536,1683,2356,1745187375585982311
7584093,2208,2573,1652,2440,1745187375585982311
7585093,2200,2612,1634,2521,1745187375585982311
7586093,2196,2647,1638,2573,1745187375585982311
7587093,2184,2668,1659,2593,1745187375585982311
7588093,2170,2670,1653,2565,1745187375585982311
7589093,2154,2653,1608,2510,1745187375585982311
7590093,2140,2621,1528,2452,1745187375585982311
7591093,2126,2573,1426,2418,1745187375585982311
7592093,2108,2529,1333,2383,1745187375585982311
7593093,2086,2468,1275,2343,1745187375585982311
7594094,2061,2414,1272,2296,1745187375585982311
7595094,2035,2372,1314,2230,1745187375585982311
7596094,2018,2345,1396,2140,1745187375585982311
7597094,2008,2332,1488,2036,1745187375585982311
7598094,1999,2337,1558,1952,1745187375585982311
7599094,1997,2360,1625,1897,1745187375585982311
7600094,2002,2397,1676,1870,1745187375585982311
7601094,2010,2450,1700,1849,1745187375585982311
7602094,2018,2506,1690,1830,1745187375585982311
7603094,2028,2557,1658,1823,1745187375585982311
7604094,2036,2590,1619,1822,1745187375585982311
7605094,2036,2618,1594,1820,1745187375585982311
7606095,2027,2630,1608,1816,1745187375585982311
7607095,2013,2632,1673,1802,1745187375585982311
7608095,1994,2633,1776,1777,1745187375585982311
7609095,1973,2624,1899,1754,1745187375585982311
7610095,1954,2604,2011,1742,1745187375639493541
7611095,1936,2566,2092,1761,1745187375639493541
7612095,1920,2523,2137,1809,1745187375639493541
7613095,1905,2459,2144,1876,1745187375639493541
7614095,1893,2394,2122,1937,1745187375639493541
7615095,1886,2334,2073,1980,1745187375639493541
7616095,1882,2289,2009,2026,1745187375639493541
7617095,1886,2255,1965,2100,1745187375639493541
7618096,1891,2236,1948,2185,1745187375639493541
7619096,1901,2235,1968,2240,1745187375639493541
7620096,1909,2244,2010,2197,1745187375639493541
7621096,1910,2266,2068,2053,1745187375639493541
7622096,1902,2297,2125,1849,1745187375639493541
7623096,1890,2328,2142,1652,1745187375639493541
7624096,1873,2353,2097,1516,1745187375639493541
7625096,1858,2368,2000,1424,1745187375639493541
7626096,1846,2369,1878,1379,1745187375639493541
7627096,1833,2357,1755,1392,1745187375639493541
7628096,1822,2333,1637,1466,1745187375639493541
7629096,1813,2299,1553,1572,1745187375639493541
7630097,1804,2253,1522,1697,1745187375639493541
7631097,1793,2202,1530,1805,1745187375639493541
7632097,1780,2141,1566,1880,1745187375639493541
7633097,1770,2076,1635,1916,1745187375639493541
7634098,1761,2007,1729,1916,1745187375639493541
7635098,1757,1953,1818,1896,1745187375639493541
7636097,1758,1905,1882,1880,1745187375639493541
7637097,1770,1869,1910,1875,1745187375639493541
7638097,1789,1852,1933,1903,1745187375639493541
7639099,1802,1857,1996,1957,1745187375639493541
7640097,1841,1875,2034,2014,1745187375639493541
7641097,1836,1910,2092,2069,1745187375639493541
7642098,1858,1948,2102,2116,1745187375639493541
7643098,1884,1986,2038,2166,1745187375639493541
7644098,1907,2018,1950,2213,1745187375639493541
7645098,1940,2035,1867,2283,1745187375639493541
7646098,1925,2036,1790,2194,1745187375639493541
7647098,1936,2041,1805,2065,1745187375639493541
7648098,1935,2021,1854,1862,1745187375639493541
7649098,1932,1989,1921,1637,1745187375639493541
7650098,1928,1944,1990,1462,1745187375639493541
7651098,1942,1889,2048,1372,1745187375639493541
7652098,1913,1840,2088,1404,1745187375639493541
7653098,1907,1789,2121,1535,1745187375639493541
7654099,1902,1744,2141,1717,1745187375639493541
7655099,1900,1706,2144,1912,1745187375639493541
7656099,1900,1681,2134,2064,1745187375639493541
7657099,1908,1670,2114,2121,1745187375639493541
7658099,1922,1677,2082,2083,1745187375639493541
7659099,1939,1699,2052,2004,1745187375639493541
7660099,1962,1739,2026,1938,1745187375639493541
7661099,1985,1788,2006,1930,1745187375639493541
7662099,2009,1845,1996,1985,1745187375639493541
7663099,2027,1905,1997,2079,1745187375639493541
7664099,2044,1960,2019,2174,1745187375639493541
7665099,2056,2004,2060,2253,1745187375639493541
7666100,2061,2034,2098,2306,1745187375639493541
7667100,2066,2042,2126,2337,1745187375639493541
7668100,2066,2037,2148,2348,1745187375694475643
7669100,2067,2018,2173,2337,1745187375694475643
7670100,2061,1989,2213,2322,1745187375694475643
7671100,2057,1950,2260,2312,1745187375694475643
7672100,2049,1901,2294,2322,1745187375694475643
7673100,2042,1845,2291,2354,1745187375694475643
7674100,2040,1793,2251,2387,1745187375694475643
7675100,2041,1748,2195,2374,1745187375694475643
7676100,2048,1718,2145,2273,1745187375694475643
7677100,2058,1704,2115,2101,1745187375694475643
7678101,2066,1710,2097,1922,1745187375694475643
7679101,2082,1734,2070,1804,1745187375694475643
7680101,2098,1775,2037,1805,1745187375694475643
7681101,2112,1828,2019,1931,1745187375694475643
7682101,2123,1890,2017,2101,1745187375694475643
7683101,2133,1953,2035,2237,1745187375694475643
7684101,2140,2012,2065,2296,1745187375694475643
7685101,2142,2064,2092,2276,1745187375694475643
7686101,2139,2097,2121,2173,1745187375694475643
7687101,2134,2109,2155,2065,1745187375694475643
7688101,2124,2105,2190,2011,1745187375694475643
7689101,2115,2085,2208,2029,1745187375694475643
7690102,2100,2056,2214,2091,1745187375694475643
7691102,2087,2019,2231,2166,1745187375694475643
7692102,2070,1980,2246,2234,1745187375694475643
7693102,2054,1935,2249,2315,1745187375694475643
7694102,2036,1892,2233,2403,1745187375694475643
7695102,2027,1856,2201,2501,1745187375694475643
7696102,2016,1829,2165,2603,1745187375694475643
7697103,2007,1818,2132,2702,1745187375694475643
7698103,1996,1824,2109,2752,1745187375694475643
7699102,2019,1878,2075,2726,1745187375694475643
7700102,1968,1881,2083,2669,1745187375694475643
7701102,1964,1928,2113,2565,1745187375694475643
7702103,1964,1978,2173,2492,1745187375694475643
7703103,1971,2025,2243,2459,1745187375694475643
7704103,1985,2067,2294,2457,1745187375694475643
7705103,2002,2094,2304,2501,1745187375694475643
7706103,2069,2145,2304,2464,1745187375694475643
7707103,2036,2108,2338,2442,1745187375694475643
7708103,2064,2092,2371,2380,1745187375694475643
7709103,2093,2063,2415,2300,1745187375694475643
7710103,2121,2020,2516,2250,1745187375694475643
7711103,2176,2000,2562,2113,1745187375694475643
7712103,2145,1907,2572,2066,1745187375694475643
7713103,2160,1854,2593,2028,1745187375694475643
7714104,2171,1803,2559,2005,1745187375694475643
7715104,2185,1762,2487,1960,1745187375694475643
7716104,2197,1732,2380,1856,1745187375694475643
7717104,2210,1718,2274,1688,1745187375694475643
7718104,2218,1723,2178,1513,1745187375694475643
7719104,2226,1747,2109,1386,1745187375694475643
7720104,2233,1788,2077,1379,1745187375694475643
7721104,2238,1838,2081,1510,1745187375694475643
7722104,2237,1898,2115,1749,1745187375694475643
7723104,2230,1995,2210,2080,1745187375694475643
7724104,2254,2042,2213,2274,1745187375694475643
7725104,2192,2040,2274,2440,1745187375694475643
7726105,2182,2062,2304,2497,1745187375753524479
7727105,2170,2060,2320,2475,1745187375753524479
7728105,2157,2039,2318,2418,1745187375753524479
7729105,2142,2002,2309,2342,1745187375753524479
7730105,2120,1954,2294,2262,1745187375753524479
7731105,2099,1896,2274,2214,1745187375753524479
7732106,2074,1830,2256,2213,1745187375753524479
7733105,2049,1765,2233,2261,1745187375753524479
7734107,2026,1707,2206,2357,1745187375753524479
7735105,2005,1660,2162,2492,1745187375753524479
7736105,1989,1629,2100,2620,1745187375753524479
7737105,1982,1613,2027,2731,1745187375753524479
7738106,1985,1620,1957,2810,1745187375753524479
7739106,2001,1662,1917,2849,1745187375753524479
7740106,2021,1721,1931,2829,1745187375753524479
7741106,2044,1774,2014,2746,1745187375753524479
7742106,2069,1826,2140,2626,1745187375753524479
7743106,2086,1888,2265,2506,1745187375753524479
7744106,2094,1953,2390,2382,1745187375753524479
7745106,2091,2004,2532,2258,1745187375753524479
7746106,2083,2044,2653,2131,1745187375753524479
7747106,2076,2070,2740,2033,1745187375753524479
7748106,2067,2067,2765,1958,1745187375753524479
7749106,2055,2025,2749,1882,1745187375753524479
7750107,2042,1956,2700,1800,1745187375753524479
7751107,2026,1886,2645,1732,1745187375753524479
7752107,2017,1828,2582,1720,1745187375753524479
7753108,2003,1772,2531,1791,1745187375753524479
7754107,2026,1742,2470,1918,1745187375753524479
7755107,1980,1661,2442,2080,1745187375753524479
7756107,1977,1635,2409,2196,1745187375753524479
7757107,1984,1627,2378,2229,1745187375753524479
7758107,1996,1635,2348,2154,1745187375753524479
7759107,2010,1658,2309,2009,1745187375753524479
7760107,2036,1689,2269,1867,1745187375753524479
7761107,2037,1733,2240,1841,1745187375753524479
7762108,2065,1804,2212,1924,1745187375753524479
7763108,2082,1892,2189,2077,1745187375753524479
7764108,2096,1983,2171,2225,1745187375753524479
7765108,2108,2057,2167,2305,1745187375753524479
7766108,2117,2107,2163,2298,1745187375753524479
7767108,2126,2140,2165,2225,1745187375753524479
7768108,2130,2161,2171,2127,1745187375753524479
7769108,2129,2169,2193,2050,1745187375753524479
7770108,2125,2156,2230,1987,1745187375753524479
7771108,2117,2132,2280,1933,1745187375753524479
7772108,2105,2100,2337,1880,1745187375753524479
7773108,2090,2061,2389,1840,1745187375753524479
7774109,2073,2020,2422,1833,1745187375753524479
7775109,2056,1988,2446,1879,1745187375753524479
7776109,2048,1963,2447,1930,1745187375753524479
7777109,2041,1946,2434,1947,1745187375753524479
7778109,2041,1938,2408,1920,1745187375753524479
7779109,2043,1933,2380,1870,1745187375753524479
7780109,2042,1925,2352,1838,1745187375753524479
7781109,2042,1913,2325,1846,1745187375753524479
7782109,2052,1907,2301,1874,1745187375753524479
7783109,2070,1908,2267,1881,1745187375753524479
7784109,2097,1912,2212,1857,1745187375811102130
7785109,2126,1907,2151,1830,1745187375811102130
7786110,2146,1891,2092,1838,1745187375811102130
7787110,2163,1878,2050,1889,1745187375811102130
7788110,2139,1836,2045,2020,1745187375811102130
7789110,2120,1784,2081,2161,1745187375811102130
7790110,2100,1714,2142,2260,1745187375811102130
7791110,2080,1632,2187,2278,1745187375811102130
7792110,2057,1569,2208,2218,1745187375811102130
7793110,2033,1533,2207,2096,1745187375811102130
7794110,2007,1504,2192,1982,1745187375811102130
7795110,1989,1491,2159,1952,1745187375811102130
7796110,1978,1502,2116,2004,1745187375811102130
7797110,1973,1541,2080,2105,1745187375811102130
7798111,1972,1621,2066,2188,1745187375811102130
7799111,1968,1719,2078,2235,1745187375811102130
7800111,1960,1811,2121,2259,1745187375811102130
7801111,1950,1907,2188,2217,1745187375811102130
7802111,1949,2014,2262,2056,1745187375811102130
7803111,1954,2109,2316,1822,1745187375811102130
7804111,1962,2167,2346,1620,1745187375811102130
7805111,1971,2200,2347,1513,1745187375811102130
7806111,1969,2232,2340,1539,1745187375811102130
7807111,1961,2267,2331,1691,1745187375811102130
7808111,1955,2294,2324,1818,1745187375811102130
7809111,1949,2296,2316,1849,1745187375811102130
7810112,1948,2256,2285,1844,1745187375811102130
7811112,1951,2190,2222,1916,1745187375811102130
7812112,1953,2118,2130,2108,1745187375811102130
7813112,2010,2126,2081,2409,1745187375811102130
7814112,1931,2021,2068,2702,1745187375811102130
7815112,1939,2012,2112,2918,1745187375811102130
7816112,1936,2005,2171,2981,1745187375811102130
7817112,1940,2008,2207,2914,1745187375811102130
7818112,1952,2017,2216,2768,1745187375811102130
7819112,1970,2040,2203,2632,1745187375811102130
7820112,1995,2078,2172,2545,1745187375811102130
7821112,2011,2114,2118,2500,1745187375811102130
7822113,2044,2171,2078,2506,1745187375811102130
7823113,2068,2238,2040,2537,1745187375811102130
7824113,2088,2318,2024,2580,1745187375811102130
7825113,2099,2387,2032,2646,1745187375811102130
7826113,2102,2439,2061,2704,1745187375811102130
7827113,2099,2479,2092,2699,1745187375811102130
7828113,2094,2501,2117,2576,1745187375811102130
7829113,2088,2499,2129,2348,1745187375811102130
7830113,2084,2460,2129,2050,1745187375811102130
7831113,2074,2394,2125,1746,1745187375811102130
7832113,2065,2310,2115,1459,1745187375811102130
7833113,2052,2218,2105,1222,1745187375811102130
7834114,2040,2124,2091,1064,1745187375811102130
7835114,2031,2043,2071,980,1745187375811102130
7836114,2028,2000,2049,1000,1745187375811102130
7837114,2029,1988,2029,1174,1745187375811102130
7838114,2032,2000,2012,1485,1745187375811102130
7839114,2037,2027,1995,1830,1745187375811102130
7840114,2038,2075,1965,2170,1745187375811102130
7841114,2041,2129,1936,2465,1745187375811102130
7842114,2043,2179,1908,2665,1745187375871575588
7843114,2053,2206,1890,2764,1745187375871575588
7844114,2066,2215,1885,2758,1745187375871575588
7845114,2074,2208,1897,2642,1745187375871575588
7846115,2076,2184,1932,2462,1745187375871575588
7847115,2078,2148,1961,2269,1745187375871575588
7848115,2078,2107,1964,2130,1745187375871575588
7849115,2080,2044,1944,2069,1745187375871575588
7850115,2080,1971,1920,2089,1745187375871575588
7851115,2074,1913,1901,2164,1745187375871575588
7852115,2065,1876,1902,2235,1745187375871575588
7853115,2054,1850,1907,2284,1745187375871575588
7854115,2043,1820,1905,2318,1745187375871575588
7855115,2037,1786,1903,2344,1745187375871575588
7856115,2033,1757,1918,2352,1745187375871575588
7857115,2033,1733,1960,2339,1745187375871575588
7858116,2033,1716,2033,2318,1745187375871575588
7859116,2040,1716,2124,2275,1745187375871575588
7860116,2049,1732,2202,2195,1745187375871575588
7861116,2059,1757,2248,2098,1745187375871575588
7862116,2069,1788,2259,1996,1745187375871575588
7863116,2076,1824,2240,1884,1745187375871575588
7864116,2083,1858,2207,1780,1745187375871575588
7865116,2086,1876,2163,1690,1745187375871575588
7866116,2085,1880,2108,1632,1745187375871575588
7867116,2078,1870,2041,1628,1745187375871575588
7868116,2066,1849,1957,1697,1745187375871575588
7869116,2053,1821,1868,1791,1745187375871575588
7870117,2039,1782,1806,1901,1745187375871575588
7871117,2059,1728,1722,1937,1745187375871575588
7872117,2008,1684,1684,2016,1745187375871575588
7873117,1996,1629,1654,2099,1745187375871575588
7874117,1989,1578,1650,2172,1745187375871575588
7875117,1992,1535,1680,2230,1745187375871575588
7876117,1998,1519,1752,2277,1745187375871575588
7877117,2009,1523,1845,2297,1745187375871575588
7878117,2022,1554,1947,2218,1745187375871575588
7879117,2032,1617,2049,2080,1745187375871575588
7880117,2044,1676,2148,1941,1745187375871575588
7881117,2059,1745,2223,1832,1745187375871575588
7882118,2074,1808,2248,1756,1745187375871575588
7883118,2094,1868,2212,1730,1745187375871575588
7884118,2114,1915,2120,1770,1745187375871575588
7885118,2132,1951,2002,1855,1745187375871575588
7886118,2145,1972,1885,1944,1745187375871575588
7887118,2157,1981,1785,1999,1745187375871575588
7888118,2160,1978,1718,2021,1745187375871575588
7889118,2161,1967,1695,2042,1745187375871575588
7890118,2162,1953,1709,2106,1745187375871575588
7891118,2161,1941,1752,2218,1745187375871575588
7892118,2162,1930,1787,2348,1745187375871575588
7893118,2165,1914,1824,2438,1745187375871575588
7894119,2174,1898,1829,2465,1745187375871575588
7895119,2188,1889,1814,2430,1745187375871575588
7896119,2209,1893,1781,2377,1745187375871575588
7897119,2234,1912,1724,2362,1745187375871575588
7898119,2263,1946,1645,2427,1745187375871575588
7899119,2298,1983,1563,2556,1745187375871575588
7900119,2331,2022,1500,2712,1745187375928219029
7901119,2364,2070,1446,2886,1745187375928219029
7902119,2387,2121,1430,3022,1745187375928219029
7903119,2401,2169,1465,3086,1745187375928219029
7904119,2406,2218,1545,3068,1745187375928219029
7905119,2409,2262,1660,2997,1745187375928219029
7906120,2412,2304,1759,2913,1745187375928219029
7907120,2419,2355,1803,2833,1745187375928219029
7908120,2427,2412,1812,2733,1745187375928219029
7909120,2441,2461,1802,2577,1745187375928219029
7910120,2453,2500,1796,2393,1745187375928219029
7911120,2466,2533,1805,2231,1745187375928219029
7912120,2474,2559,1829,2136,1745187375928219029
7913120,2481,2589,1862,2122,1745187375928219029
7914120,2488,2618,1892,2169,1745187375928219029
7915120,2494,2646,1918,2197,1745187375928219029
7916120,2505,2675,1929,2141,1745187375928219029
7917120,2515,2710,1929,2011,1745187375928219029
7918121,2527,2756,1912,1871,1745187375928219029
7919121,2540,2798,1883,1789,1745187375928219029
7920121,2553,2836,1858,1795,1745187375928219029
7921121,2559,2857,1850,1846,1745187375928219029
7922121,2568,2865,1849,1896,1745187375928219029
7923121,2576,2870,1852,1898,1745187375928219029
7924121,2581,2888,1857,1822,1745187375928219029
7925121,2580,2921,1861,1697,1745187375928219029
7926122,2573,2960,1861,1617,1745187375928219029
7927121,2559,2976,1850,1670,1745187375928219029
7928121,2541,3014,1842,1859,1745187375928219029
7929121,2515,3028,1836,2109,1745187375928219029
7930122,2488,3032,1832,2301,1745187375928219029
7931122,2496,3069,1836,2366,1745187375928219029
7932122,2423,2997,1841,2338,1745187375928219029
7933122,2390,2961,1849,2234,1745187375928219029
7934122,2357,2929,1866,2153,1745187375928219029
7935122,2318,2917,1883,2120,1745187375928219029
7936122,2281,2929,1884,2075,1745187375928219029
7937122,2251,2962,1887,1958,1745187375928219029
7938122,2227,3008,1912,1789,1745187375928219029
7939122,2210,3066,1963,1614,1745187375928219029
7940122,2194,3124,2024,1489,1745187375928219029
7941122,2173,3189,2094,1378,1745187375928219029
7942123,2169,3318,2205,1253,1745187375928219029
7943123,2104,3349,2246,1126,1745187375928219029
7944123,2073,3436,2291,981,1745187375928219029
7945123,2037,3519,2293,849,1745187375928219029
7946123,2005,3601,2254,769,1745187375928219029
7947123,1968,3691,2188,734,1745187375928219029
7948123,1923,3759,2114,708,1745187375928219029
7949123,1869,3789,2067,660,1745187375928219029
7950123,1812,3776,2052,593,1745187375928219029
7951123,1755,3724,2051,532,1745187375928219029
7952123,1697,3642,2028,540,1745187375928219029
7953123,1641,3570,1982,644,1745187375928219029
7954124,1592,3505,1934,806,1745187375928219029
7955124,1545,3440,1896,956,1745187375928219029
7956124,1506,3364,1894,1049,1745187375928219029
7957124,1460,3292,1939,1053,1745187375928219029
7958124,1419,3231,2029,990,1745187375994441809
7959124,1384,3186,2154,919,1745187375994441809
7960124,1356,3161,2272,873,1745187375994441809
7961124,1332,3153,2360,894,1745187375994441809
7962124,1312,3150,2414,998,1745187375994441809
7963124,1292,3150,2443,1130,1745187375994441809
7964124,1269,3138,2441,1204,1745187375994441809
7965124,1246,3120,2417,1189,1745187375994441809
7966125,1224,3093,2386,1072,1745187375994441809
7967125,1200,3059,2354,899,1745187375994441809
7968125,1172,3014,2329,769,1745187375994441809
7969125,1142,2955,2320,723,1745187375994441809
7970125,1108,2885,2330,737,1745187375994441809
7971125,1074,2802,2339,770,1745187375994441809
7972125,1041,2703,2339,767,1745187375994441809
7973125,1009,2598,2320,732,1745187375994441809
7974125,982,2500,2285,692,1745187375994441809
7975125,958,2400,2243,686,1745187375994441809
7976125,933,2312,2211,754,1745187375994441809
7977125,912,2240,2207,875,1745187375994441809
7978126,893,2187,2228,997,1745187375994441809
7979126,885,2152,2251,1090,1745187375994441809
7980126,885,2122,2262,1180,1745187375994441809
7981126,892,2092,2258,1285,1745187375994441809
7982126,899,2060,2246,1389,1745187375994441809
7983126,906,2029,2234,1467,1745187375994441809
7984126,910,1998,2238,1517,1745187375994441809
7985127,912,1950,2257,1554,1745187375994441809
7986126,905,1885,2280,1632,1745187375994441809
7987126,893,1809,2301,1760,1745187375994441809
7988126,886,1715,2252,1789,1745187375994441809
7989126,866,1661,2214,1738,1745187375994441809
7990127,862,1626,2170,1610,1745187375994441809
7991127,867,1586,2125,1508,1745187375994441809
7992127,870,1535,2091,1481,1745187375994441809
7993127,870,1478,2085,1549,1745187375994441809
7994127,868,1400,2144,1714,1745187375994441809
7995127,870,1346,2249,1886,1745187375994441809
7996127,880,1307,2369,1992,1745187375994441809
7997127,902,1282,2467,2013,1745187375994441809
7998127,936,1270,2523,1977,1745187375994441809
7999127,993,1269,2536,1897,1745187375994441809
8000127,1058,1271,2520,1837,1745187375994441809
8001127,1108,1287,2486,1821,1745187375994441809
8002128,1144,1308,2453,1821,1745187375994441809
8003128,1160,1330,2427,1832,1745187375994441809
8004128,1169,1348,2413,1864,1745187375994441809
8005128,1186,1357,2400,1903,1745187375994441809
8006128,1212,1352,2368,1957,1745187375994441809
8007128,1244,1321,2314,2040,1745187375994441809
8008128,1273,1259,2246,2141,1745187375994441809
8009128,1298,1181,2168,2251,1745187375994441809
8010128,1307,1097,2091,2365,1745187375994441809
8011128,1312,1018,2026,2498,1745187375994441809
8012128,1318,962,1999,2656,1745187375994441809
8013128,1322,917,2028,2830,1745187375994441809
8014129,1326,891,2116,2981,1745187375994441809
8015129,1332,875,2224,3083,1745187375994441809
8016129,1341,862,2318,3161,1745187376044561195
8017129,1360,859,2376,3244,1745187376044561195
8018129,1386,865,2381,3313,1745187376044561195
8019129,1426,889,2342,3360,1745187376044561195
8020129,1480,921,2273,3362,1745187376044561195
8021129,1538,960,2185,3256,1745187376044561195
8022129,1610,998,2092,3048,1745187376044561195
8023129,1674,1037,2013,2826,1745187376044561195
8024129,1723,1075,1973,2652,1745187376044561195
8025129,1754,1107,1977,2561,1745187376044561195
8026130,1774,1134,2030,2568,1745187376044561195
8027130,1802,1155,2116,2608,1745187376044561195
8028130,1834,1163,2189,2618,1745187376044561195
8029130,1865,1158,2237,2603,1745187376044561195
8030130,1891,1145,2265,2587,1745187376044561195
8031130,1915,1122,2275,2572,1745187376044561195
8032130,1937,1093,2265,2542,1745187376044561195
8033130,1953,1064,2235,2488,1745187376044561195
8034130,1966,1037,2197,2459,1745187376044561195
8035130,1976,1019,2164,2498,1745187376044561195
8036130,1986,1020,2137,2578,1745187376044561195
8037130,2000,1042,2105,2670,1745187376044561195
8038131,2019,1082,2076,2752,1745187376044561195
8039131,2049,1138,2043,2800,1745187376044561195
8040131,2083,1203,2018,2811,1745187376044561195
8041131,2118,1268,1997,2778,1745187376044561195
8042131,2154,1334,1985,2708,1745187376044561195
8043132,2190,1390,1973,2616,1745187376044561195
8044132,2223,1434,1953,2547,1745187376044561195
8045131,2253,1462,1917,2517,1745187376044561195
8046131,2281,1477,1874,2555,1745187376044561195
8047131,2302,1478,1840,2604,1745187376044561195
8048132,2314,1472,1825,2609,1745187376044561195
8049132,2325,1465,1840,2559,1745187376044561195
8050132,2336,1461,1874,2493,1745187376044561195
8051132,2345,1444,1915,2434,1745187376044561195
8052132,2350,1428,1940,2422,1745187376044561195
8053133,2355,1378,1961,2464,1745187376044561195
8054132,2395,1338,1980,2504,1745187376044561195
8055132,2369,1302,2006,2541,1745187376044561195
8056132,2385,1310,2010,2565,1745187376044561195
8057132,2408,1334,2006,2591,1745187376044561195
8058132,2436,1378,1996,2592,1745187376044561195
8059132,2469,1432,1981,2543,1745187376044561195
8060132,2491,1486,1970,2410,1745187376044561195
8061133,2543,1537,1969,2266,1745187376044561195
8062133,2562,1595,1972,2140,1745187376044561195
8063133,2593,1657,1977,2063,1745187376044561195
8064134,2625,1714,1977,2050,1745187376044561195
8065133,2629,1765,1968,2060,1745187376044561195
8066133,2634,1805,1950,2025,1745187376044561195
8067133,2632,1829,1923,1947,1745187376044561195
8068133,2614,1833,1891,1871,1745187376044561195
8069133,2606,1820,1850,1834,1745187376044561195
8070133,2587,1797,1816,1875,1745187376044561195
8071133,2587,1783,1797,1981,1745187376044561195
8072133,2603,1773,1787,2088,1745187376044561195
8073133,2634,1758,1789,2166,1745187376044561195
8074134,2668,1749,1796,2243,1745187376107202863
8075134,2696,1778,1808,2314,1745187376107202863
8076135,2717,1840,1825,2361,1745187376107202863
8077134,2729,1910,1845,2396,1745187376107202863
8078134,2733,1979,1858,2449,1745187376107202863
8079134,2740,2053,1852,2526,1745187376107202863
8080134,2750,2123,1830,2563,1745187376107202863
8081134,2771,2192,1804,2557,1745187376107202863
8082134,2780,2258,1788,2458,1745187376107202863
8083134,2792,2321,1800,2325,1745187376107202863
8084134,2802,2373,1852,2204,1745187376107202863
8085134,2808,2410,1933,2138,1745187376107202863
8086135,2810,2428,2017,2137,1745187376107202863
8087135,2810,2429,2094,2182,1745187376107202863
8088135,2812,2412,2158,2196,1745187376107202863
8089135,2799,2378,2204,2149,1745187376107202863
8090135,2789,2332,2221,2104,1745187376107202863
8091135,2774,2282,2219,2117,1745187376107202863
8092135,2757,2236,2210,2161,1745187376107202863
8093135,2744,2193,2202,2173,1745187376107202863
8094135,2731,2150,2192,2126,1745187376107202863
8095135,2713,2107,2166,2012,1745187376107202863
8096135,2698,2067,2120,1885,1745187376107202863
8097135,2686,2033,2062,1808,1745187376107202863
8098136,2680,2016,1998,1825,1745187376107202863
8099136,2679,2022,1958,1932,1745187376107202863
8100136,2675,2056,1945,2078,1745187376107202863
8101136,2674,2122,1956,2181,1745187376107202863
8102136,2674,2209,1981,2208,1745187376107202863
8103137,2678,2290,2011,2176,1745187376107202863
8104138,2685,2384,2067,2110,1745187376107202863
8105136,2685,2357,2059,2071,1745187376107202863
8106136,2685,2362,2078,2037,1745187376107202863
8107137,2682,2362,2092,2030,1745187376107202863
8108136,2667,2357,2105,2034,1745187376107202863
8109136,2647,2353,2112,2013,1745187376107202863
8110137,2617,2308,2110,1965,1745187376107202863
8111137,2584,2257,2105,1906,1745187376107202863
8112137,2557,2189,2097,1851,1745187376107202863
8113137,2511,2112,2079,1773,1745187376107202863
8114137,2486,2032,2054,1654,1745187376107202863
8115137,2457,1961,2014,1540,1745187376107202863
8116137,2434,1908,1974,1500,1745187376107202863
8117137,2411,1891,1939,1597,1745187376107202863
8118137,2397,1908,1918,1839,1745187376107202863
8119137,2378,1955,1925,2098,1745187376107202863
8120137,2369,2008,1954,2265,1745187376107202863
8121137,2364,2062,1997,2329,1745187376107202863
8122138,2360,2106,2048,2333,1745187376107202863
8123138,2354,2145,2088,2334,1745187376107202863
8124138,2344,2177,2114,2329,1745187376107202863
8125138,2331,2201,2115,2280,1745187376107202863
8126138,2317,2208,2086,2174,1745187376107202863
8127138,2301,2200,2035,2048,1745187376107202863
8128138,2280,2179,1981,2002,1745187376107202863
8129138,2260,2151,1946,2131,1745187376107202863
8130138,2232,2121,1935,2365,1745187376107202863
8131138,2205,2086,1942,2587,1745187376107202863
8132138,2180,2054,1956,2774,1745187376165445820
8133138,2160,2029,1958,2901,1745187376165445820
8134139,2146,2012,1958,2976,1745187376165445820
8135139,2137,2018,1972,2987,1745187376165445820
8136139,2130,2044,2006,2920,1745187376165445820
8137139,2129,2088,2071,2779,1745187376165445820
8138139,2132,2141,2140,2585,1745187376165445820
8139139,2139,2195,2193,2383,1745187376165445820
8140139,2149,2246,2233,2188,1745187376165445820
8141139,2161,2291,2254,2006,1745187376165445820
8142139,2173,2329,2256,1832,1745187376165445820
8143139,2187,2368,2236,1681,1745187376165445820
8144139,2200,2411,2202,1569,1745187376165445820
8145139,2208,2447,2156,1526,1745187376165445820
8146140,2213,2473,2107,1553,1745187376165445820
8147140,2214,2470,2069,1670,1745187376165445820
8148140,2212,2449,2051,1787,1745187376165445820
8149140,2204,2410,2049,1834,1745187376165445820
8150140,2194,2345,2058,1826,1745187376165445820
8151140,2183,2278,2066,1827,1745187376165445820
8152140,2169,2202,2064,1917,1745187376165445820
8153140,2157,2115,2058,2084,1745187376165445820
8154140,2154,2006,2051,2258,1745187376165445820
8155140,2157,1891,2042,2385,1745187376165445820
8156140,2168,1790,2040,2464,1745187376165445820
8157140,2178,1722,2050,2541,1745187376165445820
8158141,2190,1692,2088,2624,1745187376165445820
8159141,2206,1702,2141,2676,1745187376165445820
8160141,2221,1756,2186,2650,1745187376165445820
8161141,2246,1833,2210,2570,1745187376165445820
8162141,2268,1921,2216,2498,1745187376165445820
8163141,2286,1995,2204,2472,1745187376165445820
8164141,2302,2051,2179,2482,1745187376165445820
8165141,2312,2084,2154,2483,1745187376165445820
8166141,2345,2130,2121,2438,1745187376165445820
8167141,2338,2090,2102,2287,1745187376165445820
8168141,2326,2150,2118,2160,1745187376165445820
8169141,2278,2127,2084,2065,1745187376165445820
8170142,2269,2109,2097,1965,1745187376165445820
8171142,2257,2069,2117,1882,1745187376165445820
8172142,2250,2012,2135,1820,1745187376165445820
8173142,2242,1954,2160,1775,1745187376165445820
8174142,2240,1897,2173,1750,1745187376165445820
8175142,2238,1844,2166,1773,1745187376165445820
8176142,2246,1797,2141,1847,1745187376165445820
8177142,2258,1768,2117,1958,1745187376165445820
8178142,2274,1764,2105,2081,1745187376165445820
8179142,2296,1788,2105,2173,1745187376165445820
8180142,2315,1822,2109,2190,1745187376165445820
8181142,2330,1861,2110,2100,1745187376165445820
8182143,2344,1897,2102,1909,1745187376165445820
8183143,2355,1923,2082,1698,1745187376165445820
8184143,2363,1936,2044,1557,1745187376165445820
8185143,2365,1936,1996,1522,1745187376165445820
8186143,2365,1927,1961,1572,1745187376165445820
8187143,2360,1923,1946,1676,1745187376165445820
8188143,2347,1926,1953,1752,1745187376165445820
8189143,2332,1940,1976,1779,1745187376165445820
8190143,2312,1960,2020,1781,1745187376234882061
8191143,2286,1970,2080,1772,1745187376234882061
8192143,2250,1963,2136,1784,1745187376234882061
8193143,2216,1938,2178,1869,1745187376234882061
8194144,2182,1913,2197,2030,1745187376234882061
8195144,2155,1902,2198,2205,1745187376234882061
8196144,2134,1910,2184,2344,1745187376234882061
8197144,2121,1933,2154,2437,1745187376234882061
8198144,2117,1978,2115,2490,1745187376234882061
8199144,2118,2049,2072,2484,1745187376234882061
8200144,2128,2143,2026,2394,1745187376234882061
8201144,2140,2252,1986,2234,1745187376234882061
8202144,2149,2370,1956,2043,1745187376234882061
8203144,2161,2485,1934,1897,1745187376234882061
8204144,2165,2565,1920,1812,1745187376234882061
8205144,2168,2622,1909,1766,1745187376234882061
8206145,2169,2646,1911,1737,1745187376234882061
8207145,2168,2644,1921,1723,1745187376234882061
8208145,2163,2625,1944,1749,1745187376234882061
8209145,2155,2590,1986,1821,1745187376234882061
8210145,2146,2541,2043,1908,1745187376234882061
8211145,2138,2461,2110,1972,1745187376234882061
8212145,2133,2368,2164,1984,1745187376234882061
8213145,2130,2281,2191,1952,1745187376234882061
8214145,2130,2221,2185,1917,1745187376234882061
8215145,2130,2205,2154,1894,1745187376234882061
8216145,2130,2210,2112,1880,1745187376234882061
8217145,2132,2205,2067,1867,1745187376234882061
8218146,2136,2184,2024,1824,1745187376234882061
8219146,2143,2165,1989,1770,1745187376234882061
8220146,2148,2153,1964,1745,1745187376234882061
8221146,2157,2152,1948,1747,1745187376234882061
8222146,2177,2170,1940,1774,1745187376234882061
8223146,2209,2195,1936,1828,1745187376234882061
8224146,2246,2226,1927,1928,1745187376234882061
8225146,2272,2248,1947,2074,1745187376234882061
8226146,2275,2251,1915,2204,1745187376234882061
8227146,2287,2243,1914,2271,1745187376234882061
8228146,2278,2220,1913,2292,1745187376234882061
8229146,2267,2177,1920,2305,1745187376234882061
8230147,2246,2122,1938,2324,1745187376234882061
8231147,2242,2054,1960,2348,1745187376234882061
8232147,2194,1985,1972,2344,1745187376234882061
8233147,2168,1917,1987,2319,1745187376234882061
8234147,2142,1862,2002,2330,1745187376234882061
8235147,2120,1824,2014,2379,1745187376234882061
8236147,2098,1813,2032,2414,1745187376234882061
8237147,2077,1827,2066,2401,1745187376234882061
8238147,2064,1864,2102,2360,1745187376234882061
8239147,2057,1925,2120,2308,1745187376234882061
8240147,2051,2013,2097,2227,1745187376234882061
8241147,2050,2101,2048,2122,1745187376234882061
8242148,2050,2171,1997,2019,1745187376234882061
8243148,2050,2234,1952,1949,1745187376234882061
8244148,2043,2284,1928,1960,1745187376234882061
8245148,2032,2334,1929,2032,1745187376234882061
8246148,2017,2385,1947,2113,1745187376234882061
8247148,2001,2425,1970,2176,1745187376234882061
8248148,1978,2454,1995,2216,1745187376279565507
8249148,1958,2469,2025,2229,1745187376279565507
8250148,1933,2467,2051,2231,1745187376279565507
8251148,1906,2449,2054,2256,1745187376279565507
8252148,1881,2430,2027,2296,1745187376279565507
8253148,1852,2402,1972,2348,1745187376279565507
8254149,1828,2372,1907,2420,1745187376279565507
8255149,1811,2350,1853,2483,1745187376279565507
8256149,1796,2342,1825,2505,1745187376279565507
8257149,1788,2357,1822,2466,1745187376279565507
8258149,1785,2390,1852,2386,1745187376279565507
8259149,1786,2441,1902,2293,1745187376279565507
8260149,1790,2500,1968,2172,1745187376279565507
8261149,1804,2559,2032,2028,1745187376279565507
8262149,1817,2619,2090,1896,1745187376279565507
8263149,1833,2682,2123,1801,1745187376279565507
8264149,1842,2738,2138,1770,1745187376279565507
8265149,1846,2776,2139,1781,1745187376279565507
8266150,1846,2799,2124,1769,1745187376279565507
8267150,1845,2795,2088,1696,1745187376279565507
8268150,1841,2770,2026,1580,1745187376279565507
8269150,1834,2724,1954,1490,1745187376279565507
8270150,1820,2669,1885,1462,1745187376279565507
8271150,1816,2605,1833,1534,1745187376279565507
8272150,1804,2545,1809,1650,1745187376279565507
8273150,1796,2464,1810,1760,1745187376279565507
8274150,1793,2376,1824,1827,1745187376279565507
8275150,1789,2289,1850,1854,1745187376279565507
8276150,1789,2208,1881,1835,1745187376279565507
8277150,1794,2147,1912,1805,1745187376279565507
8278151,1803,2129,1940,1794,1745187376279565507
8279151,1819,2161,1950,1840,1745187376279565507
8280151,1832,2230,1949,1929,1745187376279565507
8281151,1842,2313,1937,2017,1745187376279565507
8282151,1845,2387,1920,2094,1745187376279565507
8283151,1844,2440,1903,2146,1745187376279565507
8284151,1842,2456,1884,2147,1745187376279565507
8285151,1837,2439,1866,2092,1745187376279565507
8286151,1830,2403,1851,2022,1745187376279565507
8287151,1821,2378,1842,1970,1745187376279565507
8288151,1809,2364,1848,1940,1745187376279565507
8289151,1794,2336,1882,1922,1745187376279565507
8290152,1778,2278,1949,1897,1745187376279565507
8291152,1764,2193,2018,1895,1745187376279565507
8292152,1752,2097,2059,1907,1745187376279565507
8293152,1744,1998,2057,1902,1745187376279565507
8294152,1741,1905,2051,1870,1745187376279565507
8295152,1737,1819,1973,1874,1745187376279565507
8296152,1751,1753,1937,1913,1745187376279565507
8297152,1761,1704,1922,1947,1745187376279565507
8298152,1762,1678,1944,1942,1745187376279565507
8299152,1757,1675,1998,1902,1745187376279565507
8300152,1768,1698,2058,1850,1745187376279565507
8301152,1748,1745,2097,1820,1745187376279565507
8302153,1756,1808,2102,1814,1745187376279565507
8303153,1768,1881,2078,1834,1745187376279565507
8304153,1785,1950,2038,1888,1745187376279565507
8305153,1796,2017,2011,1947,1745187376279565507
8306153,1804,2059,2003,1948,1745187376340971560
8307153,1804,2066,2018,1868,1745187376340971560
8308153,1800,2042,2043,1745,1745187376340971560
8309153,1795,2001,2073,1608,1745187376340971560
8310153,1791,1944,2096,1493,1745187376340971560
8311153,1788,1874,2104,1404,1745187376340971560
8312153,1789,1803,2090,1370,1745187376340971560
8313153,1792,1733,2040,1400,1745187376340971560
8314154,1802,1666,1968,1470,1745187376340971560
8315154,1817,1616,1884,1535,1745187376340971560
8316154,1834,1581,1801,1594,1745187376340971560
8317154,1848,1570,1741,1698,1745187376340971560
8318154,1860,1588,1733,1828,1745187376340971560
8319154,1876,1629,1787,1891,1745187376340971560
8320154,1900,1679,1869,1839,1745187376340971560
8321154,1926,1726,1945,1748,1745187376340971560
8322154,1951,1765,2002,1724,1745187376340971560
8323154,1970,1797,2042,1788,1745187376340971560
8324154,1985,1826,2066,1844,1745187376340971560
8325154,1993,1852,2075,1829,1745187376340971560
8326155,2003,1886,2088,1746,1745187376340971560
8327155,2008,1908,2112,1659,1745187376340971560
8328155,2008,1904,2149,1652,1745187376340971560
8329155,1999,1882,2201,1752,1745187376340971560
8330155,1987,1845,2259,1909,1745187376340971560
8331155,1973,1805,2304,2036,1745187376340971560
8332155,1961,1759,2314,2089,1745187376340971560
8333155,1948,1712,2284,2059,1745187376340971560
8334155,1939,1673,2233,1979,1745187376340971560
8335156,1935,1647,2171,1907,1745187376340971560
8336155,1933,1635,2109,1888,1745187376340971560
8337155,1934,1636,2050,1934,1745187376340971560
8338157,1944,1648,1999,2019,1745187376340971560
8339156,1964,1685,1945,2102,1745187376340971560
8340156,1981,1682,1940,2172,1745187376340971560
8341156,2000,1737,1937,2207,1745187376340971560
8342156,2014,1811,1952,2198,1745187376340971560
8343156,2019,1888,1977,2144,1745187376340971560
8344156,2016,1948,2000,2048,1745187376340971560
8345156,2009,1981,2030,1947,1745187376340971560
8346156,1998,1989,2019,1805,1745187376340971560
8347156,1986,1971,2026,1733,1745187376340971560
8348156,1964,1939,2025,1737,1745187376340971560
8349156,1944,1901,2013,1744,1745187376340971560
8350157,1916,1858,1984,1685,1745187376340971560
8351157,1891,1803,1946,1566,1745187376340971560
8352157,1866,1732,1907,1474,1745187376340971560
8353157,1839,1652,1874,1481,1745187376340971560
8354157,1818,1602,1859,1622,1745187376340971560
8355157,1803,1610,1877,1836,1745187376340971560
8356157,1795,1647,1915,2052,1745187376340971560
8357157,1796,1683,1949,2216,1745187376340971560
8358157,1801,1710,1962,2301,1745187376340971560
8359157,1833,1734,1945,2296,1745187376340971560
8360157,1859,1762,1913,2227,1745187376340971560
8361157,1884,1790,1884,2126,1745187376340971560
8362158,1905,1820,1878,2002,1745187376340971560
8363158,1921,1861,1913,1898,1745187376340971560
8364158,1930,1920,1979,1873,1745187376395471740
8365158,1931,1982,2065,1949,1745187376395471740
8366158,1929,2026,2153,2065,1745187376395471740
8367158,1920,2037,2224,2150,1745187376395471740
8368158,1908,2026,2264,2164,1745187376395471740
8369158,1896,1977,2262,2099,1745187376395471740
8370158,1882,1914,2224,1998,1745187376395471740
8371158,1866,1848,2165,1928,1745187376395471740
8372158,1842,1781,2103,1922,1745187376395471740
8373158,1818,1717,2036,1995,1745187376395471740
8374159,1796,1664,1963,2138,1745187376395471740
8375159,1780,1626,1891,2322,1745187376395471740
8376159,1773,1605,1828,2485,1745187376395471740
8377159,1772,1605,1794,2571,1745187376395471740
8378159,1779,1624,1801,2546,1745187376395471740
8379159,1794,1662,1850,2388,1745187376395471740
8380159,1811,1716,1931,2202,1745187376395471740
8381159,1818,1778,2028,2097,1745187376395471740
8382159,1838,1845,2114,2120,1745187376395471740
8383159,1857,1910,2165,2187,1745187376395471740
8384159,1872,1966,2174,2192,1745187376395471740
8385159,1888,2004,2145,2108,1745187376395471740
8386160,1900,2028,2100,1961,1745187376395471740
8387160,1902,2035,2060,1807,1745187376395471740
8388160,1913,2033,2056,1740,1745187376395471740
8389160,1914,2024,2084,1800,1745187376395471740
8390160,1910,2014,2124,1982,1745187376395471740
8391160,1907,2002,2154,2248,1745187376395471740
8392160,1907,1976,2170,2513,1745187376395471740
8393160,1913,1930,2169,2683,1745187376395471740
8394160,1922,1880,2164,2755,1745187376395471740
8395162,1938,1841,2162,2734,1745187376395471740
8396160,1958,1822,2165,2648,1745187376395471740
8397160,1967,1828,2206,2546,1745187376395471740
8398161,2008,1858,2203,2451,1745187376395471740
8399161,2041,1912,2223,2386,1745187376395471740
8400161,2050,1987,2257,2386,1745187376395471740
8401161,2083,2064,2209,2333,1745187376395471740
8402161,2118,2139,2179,2336,1745187376395471740
8403161,2148,2204,2129,2363,1745187376395471740
8404161,2164,2253,2069,2381,1745187376395471740
8405161,2168,2283,2000,2381,1745187376395471740
8406162,2182,2292,1937,2362,1745187376395471740
8407161,2187,2293,1885,2328,1745187376395471740
8408161,2182,2271,1864,2293,1745187376395471740
8409161,2178,2230,1872,2285,1745187376395471740
8410162,2164,2184,1901,2299,1745187376395471740
8411162,2146,2127,1937,2313,1745187376395471740
8412162,2130,2067,1962,2315,1745187376395471740
8413162,2118,2006,1976,2310,1745187376395471740
8414162,2112,1957,1981,2312,1745187376395471740
8415162,2112,1917,1985,2316,1745187376395471740
8416162,2117,1896,1986,2317,1745187376395471740
8417162,2129,1891,1985,2322,1745187376395471740
8418162,2146,1908,1976,2333,1745187376395471740
8419162,2170,1949,1959,2353,1745187376395471740
8420162,2194,1998,1948,2384,1745187376395471740
8421162,2216,2049,1953,2397,1745187376395471740
8422163,2237,2090,1974,2334,1745187376455884834
8423163,2255,2120,2010,2186,1745187376455884834
8424163,2269,2136,2042,1990,1745187376455884834
8425163,2282,2152,2069,1797,1745187376455884834
8426163,2290,2177,2091,1667,1745187376455884834
8427163,2289,2200,2118,1648,1745187376455884834
8428163,2285,2198,2141,1747,1745187376455884834
8429163,2271,2173,2151,1928,1745187376455884834
8430163,2256,2137,2147,2129,1745187376455884834
8431163,2240,2089,2138,2312,1745187376455884834
8432163,2209,2040,2138,2449,1745187376455884834
8433163,2165,2006,2160,2496,1745187376455884834
8434164,2118,1973,2204,2429,1745187376455884834
8435164,2068,1938,2253,2304,1745187376455884834
8436164,2020,1909,2285,2209,1745187376455884834
8437164,1984,1896,2288,2168,1745187376455884834
8438164,1965,1902,2252,2167,1745187376455884834
8439164,1962,1929,2198,2170,1745187376455884834
8440164,1977,1970,2145,2152,1745187376455884834
8441164,2005,2019,2113,2110,1745187376455884834
8442164,2044,2074,2121,2068,1745187376455884834
8443164,2088,2122,2156,2051,1745187376455884834
8444164,2131,2162,2194,2062,1745187376455884834
8445164,2172,2188,2213,2077,1745187376455884834
8446165,2204,2200,2212,2070,1745187376455884834
8447165,2228,2195,2192,2050,1745187376455884834
8448165,2241,2172,2161,2002,1745187376455884834
8449165,2246,2134,2116,1922,1745187376455884834
8450165,2249,2086,2058,1799,1745187376455884834
8451165,2245,2028,1986,1659,1745187376455884834
8452166,2245,1968,1908,1553,1745187376455884834
8453165,2236,1910,1846,1524,1745187376455884834
8454165,2229,1868,1813,1550,1745187376455884834
8455165,2217,1864,1789,1612,1745187376455884834
8456165,2210,1826,1798,1718,1745187376455884834
8457165,2207,1829,1791,1833,1745187376455884834
8458166,2211,1848,1776,1944,1745187376455884834
8459166,2221,1883,1752,2020,1745187376455884834
8460166,2233,1931,1724,2066,1745187376455884834
8461166,2232,1987,1718,2104,1745187376455884834
8462166,2246,2066,1770,2157,1745187376455884834
8463166,2250,2144,1890,2204,1745187376455884834
8464166,2249,2210,2044,2229,1745187376455884834
8465166,2249,2259,2181,2209,1745187376455884834
8466166,2245,2284,2259,2156,1745187376455884834
8467166,2243,2288,2268,2106,1745187376455884834
8468166,2236,2273,2218,2090,1745187376455884834
8469166,2228,2244,2142,2108,1745187376455884834
8470167,2218,2204,2066,2136,1745187376455884834
8471167,2200,2154,2002,2146,1745187376455884834
8472167,2185,2104,1968,2125,1745187376455884834
8473167,2170,2052,1962,2078,1745187376455884834
8474167,2157,2007,1989,2020,1745187376455884834
8475167,2148,1977,2043,1970,1745187376455884834
8476167,2145,1961,2100,1913,1745187376455884834
8477167,2146,1963,2123,1873,1745187376455884834
8478167,2152,1978,2098,1878,1745187376455884834
8479167,2161,2009,2033,1944,1745187376455884834
8480167,2176,2051,1959,2052,1745187376513170717
8481167,2186,2096,1902,2141,1745187376513170717
8482168,2198,2145,1888,2124,1745187376513170717
8483168,2213,2189,1917,1976,1745187376513170717
8484168,2227,2221,1980,1777,1745187376513170717
8485168,2235,2240,2060,1635,1745187376513170717
8486168,2238,2245,2133,1618,1745187376513170717
8487168,2230,2241,2200,1706,1745187376513170717
8488168,2218,2221,2256,1826,1745187376513170717
8489168,2199,2196,2288,1939,1745187376513170717
8490168,2181,2150,2280,2050,1745187376513170717
8491168,2162,2108,2219,2144,1745187376513170717
8492168,2146,2064,2129,2197,1745187376513170717
8493168,2131,2018,2036,2190,1745187376513170717
8494169,2117,1981,1963,2148,1745187376513170717
8495169,2107,1962,1906,2119,1745187376513170717
8496169,2099,1959,1874,2122,1745187376513170717
8497169,2094,1974,1866,2145,1745187376513170717
8498169,2096,2011,1894,2163,1745187376513170717
8499169,2100,2062,1936,2169,1745187376513170717
8500169,2113,2120,1954,2189,1745187376513170717
8501169,2129,2180,1935,2236,1745187376513170717
8502169,2141,2240,1893,2283,1745187376513170717
8503169,2152,2305,1860,2294,1745187376513170717
8504169,2158,2344,1854,2234,1745187376513170717
8505169,2160,2374,1882,2121,1745187376513170717
8506170,2157,2390,1932,2013,1745187376513170717
8507170,2149,2387,1998,1948,1745187376513170717
8508170,2138,2362,2081,1936,1745187376513170717
8509170,2124,2322,2177,1956,1745187376513170717
8510170,2108,2274,2265,1988,1745187376513170717
8511170,2089,2220,2315,2051,1745187376513170717
8512170,2068,2152,2316,2067,1745187376513170717
8513172,2061,2098,2288,2108,1745187376513170717
8514170,2050,2044,2251,2166,1745187376513170717
8515170,2040,2008,2242,2282,1745187376513170717
8516170,2033,1986,2162,2330,1745187376513170717
8517171,2052,1986,2109,2354,1745187376513170717
8518171,2065,2003,2044,2284,1745187376513170717
8519171,2083,2035,1983,2137,1745187376513170717
8520171,2099,2085,1938,2012,1745187376513170717
8521171,2101,2140,1922,1955,1745187376513170717
8522171,2125,2207,1945,1964,1745187376513170717
8523171,2134,2265,1982,2024,1745187376513170717
8524171,2140,2305,2013,2094,1745187376513170717
8525171,2144,2326,2022,2133,1745187376513170717
8526171,2139,2331,2029,2171,1745187376513170717
8527171,2129,2324,2052,2251,1745187376513170717
8528171,2111,2303,2085,2357,1745187376513170717
8529171,2091,2267,2110,2466,1745187376513170717
8530172,2077,2221,2109,2559,1745187376513170717
8531172,2067,2164,2073,2610,1745187376513170717
8532172,2059,2101,2024,2616,1745187376513170717
8533172,2051,2036,1997,2566,1745187376513170717
8534172,2040,1984,2032,2489,1745187376513170717
8535172,2032,1947,2140,2376,1745187376513170717
8536172,2026,1928,2291,2237,1745187376513170717
8537172,2026,1925,2441,2084,1745187376513170717
8538172,2032,1941,2529,1960,1745187376574405938
8539172,2048,1974,2545,1891,1745187376574405938
8540172,2068,2020,2491,1888,1745187376574405938
8541172,2083,2073,2401,1944,1745187376574405938
8542173,2100,2129,2316,2022,1745187376574405938
8543173,2117,2180,2262,2100,1745187376574405938
8544173,2128,2222,2238,2160,1745187376574405938
8545173,2139,2249,2232,2193,1745187376574405938
8546173,2145,2252,2208,2185,1745187376574405938
8547173,2149,2234,2152,2148,1745187376574405938
8548173,2144,2195,2073,2106,1745187376574405938
8549173,2133,2147,1987,2101,1745187376574405938
8550173,2108,2097,1922,2146,1745187376574405938
8551173,2083,2050,1891,2212,1745187376574405938
8552173,2056,2002,1887,2261,1745187376574405938
8553173,2038,1953,1889,2269,1745187376574405938
8554174,2026,1912,1879,2234,1745187376574405938
8555174,2015,1880,1850,2219,1745187376574405938
8556174,2010,1862,1812,2264,1745187376574405938
8557174,2006,1864,1774,2361,1745187376574405938
8558174,2004,1881,1745,2472,1745187376574405938
8559174,2006,1922,1737,2552,1745187376574405938
8560174,2010,1974,1773,2558,1745187376574405938
8561174,2017,2033,1876,2461,1745187376574405938
8562174,2025,2100,2040,2313,1745187376574405938
8563174,2030,2165,2205,2196,1745187376574405938
8564174,2040,2233,2309,2116,1745187376574405938
8565174,2052,2285,2346,2044,1745187376574405938
8566175,2062,2309,2329,1969,1745187376574405938
8567175,2073,2308,2284,1905,1745187376574405938
8568175,2083,2281,2245,1866,1745187376574405938
8569176,2097,2241,2244,1852,1745187376574405938
8570175,2097,2194,2278,1848,1745187376574405938
8571175,2105,2145,2309,1827,1745187376574405938
8572175,2115,2089,2312,1818,1745187376574405938
8573175,2160,2021,2269,1829,1745187376574405938
8574175,2145,1974,2202,1865,1745187376574405938
8575175,2163,1934,2112,1896,1745187376574405938
8576175,2182,1908,2038,1902,1745187376574405938
8577175,2205,1901,1992,1876,1745187376574405938
8578176,2230,1913,1944,1849,1745187376574405938
8579176,2262,1937,1890,1840,1745187376574405938
8580176,2294,1973,1823,1867,1745187376574405938
8581176,2322,2017,1747,1949,1745187376574405938
8582176,2344,2067,1681,2074,1745187376574405938
8583176,2353,2117,1636,2204,1745187376574405938
8584176,2353,2166,1635,2316,1745187376574405938
8585176,2339,2213,1682,2405,1745187376574405938
8586176,2315,2250,1763,2472,1745187376574405938
8587176,2290,2275,1868,2505,1745187376574405938
8588176,2262,2283,2000,2497,1745187376574405938
8589176,2242,2277,2150,2448,1745187376574405938
8590177,2219,2254,2284,2376,1745187376574405938
8591177,2197,2218,2371,2286,1745187376574405938
8592177,2172,2170,2412,2180,1745187376574405938
8593177,2146,2117,2421,2078,1745187376574405938
8594177,2122,2068,2422,1998,1745187376574405938
8595177,2100,2029,2424,1966,1745187376574405938
8596177,2088,2005,2423,1980,1745187376634685909
8597177,2082,1998,2421,2040,1745187376634685909
8598177,2084,2010,2405,2112,1745187376634685909
8599177,2093,2042,2363,2153,1745187376634685909
8600177,2108,2091,2286,2152,1745187376634685909
8601177,2123,2147,2181,2100,1745187376634685909
8602178,2139,2211,2067,1995,1745187376634685909
8603178,2158,2268,1950,1845,1745187376634685909
8604178,2179,2316,1849,1673,1745187376634685909
8605178,2203,2346,1772,1526,1745187376634685909
8606178,2225,2358,1731,1446,1745187376634685909
8607178,2238,2360,1752,1460,1745187376634685909
8608178,2244,2346,1840,1542,1745187376634685909
8609178,2242,2317,1962,1697,1745187376634685909
8610178,2234,2277,2075,1902,1745187376634685909
8611178,2220,2229,2139,2109,1745187376634685909
8612178,2204,2171,2142,2279,1745187376634685909
8613178,2187,2114,2093,2396,1745187376634685909
8614179,2171,2065,2037,2445,1745187376634685909
8615179,2154,2029,2024,2428,1745187376634685909
8616179,2134,2013,2064,2371,1745187376634685909
8617179,2113,2019,2121,2268,1745187376634685909
