timestamp,emg0,emg1,emg2,emg3,pkt_time_ns
6622643,2003,1906,2107,2090,1745175660399010406
6623641,1997,1911,2124,2088,1745175660399010406
6624641,1995,1918,2132,2091,1745175660399010406
6625641,1996,1927,2129,2092,1745175660399010406
6626641,1997,1935,2120,2092,1745175660399010406
6627641,1998,1941,2104,2087,1745175660399010406
6628641,1998,1946,2088,2085,1745175660399010406
6629641,2002,1950,2073,2089,1745175660399010406
6630641,2009,1947,2056,2090,1745175660399010406
6631641,2013,1939,2035,2088,1745175660399010406
6632642,2019,1922,2011,2079,1745175660399010406
6633642,2027,1900,1990,2062,1745175660399010406
6634643,2040,1874,1978,2036,1745175660399010406
6635642,2056,1845,1976,2006,1745175660399010406
6636642,2067,1816,1988,1973,1745175660399010406
6637642,2084,1787,2004,1940,1745175660399010406
6638642,2086,1752,2027,1907,1745175660399010406
6639642,2098,1720,2060,1889,1745175660399010406
6640642,2113,1690,2099,1883,1745175660399010406
6641642,2130,1667,2139,1896,1745175660399010406
6642642,2145,1652,2177,1928,1745175660399010406
6643642,2157,1650,2205,1970,1745175660399010406
6644643,2163,1664,2220,2017,1745175660399010406
6645643,2157,1693,2221,2057,1745175660399010406
6646643,2135,1741,2205,2082,1745175660399010406
6647643,2108,1795,2171,2099,1745175660399010406
6648643,2069,1844,2124,2111,1745175660399010406
6649643,2042,1886,2076,2123,1745175660399010406
6650643,2025,1920,2031,2136,1745175660399010406
6651643,2012,1946,1999,2144,1745175660399010406
6652643,2004,1963,1972,2141,1745175660399010406
6653643,2002,1970,1953,2129,1745175660399010406
6654643,2006,1968,1939,2113,1745175660399010406
6655643,2016,1956,1933,2097,1745175660399010406
6656644,2029,1938,1936,2077,1745175660399010406
6657644,2048,1920,1942,2060,1745175660399010406
6658644,2059,1901,1955,2049,1745175660399010406
6659644,2071,1885,1974,2049,1745175660399010406
6660644,2082,1870,1997,2053,1745175660399010406
6661644,2088,1861,2021,2060,1745175660399010406
6662644,2092,1856,2049,2069,1745175660399010406
6663644,2097,1856,2073,2076,1745175660399010406
6664644,2101,1856,2092,2078,1745175660399010406
6665644,2106,1860,2104,2081,1745175660399010406
6666644,2111,1867,2109,2083,1745175660399010406
6667644,2116,1873,2110,2090,1745175660399010406
6668645,2121,1881,2112,2099,1745175660399010406
6669645,2128,1890,2108,2118,1745175660399010406
6670645,2132,1904,2107,2137,1745175660399010406
6671645,2132,1929,2104,2142,1745175660399010406
6672645,2131,1954,2099,2132,1745175660399010406
6673645,2131,1976,2090,2110,1745175660399010406
6674645,2132,1994,2081,2083,1745175660399010406
6675645,2134,2010,2078,2060,1745175660399010406
6676645,2136,2025,2080,2044,1745175660399010406
6677645,2132,2038,2083,2031,1745175660399010406
6678645,2126,2050,2092,2024,1745175660399010406
6679645,2116,2061,2101,2022,1745175660399010406
6680646,2107,2074,2115,2029,1745175660453446992
6681646,2100,2091,2136,2040,1745175660453446992
6682646,2099,2112,2157,2042,1745175660453446992
6683646,2098,2138,2184,2036,1745175660453446992
6684646,2096,2171,2202,2024,1745175660453446992
6685646,2091,2211,2208,2010,1745175660453446992
6686646,2081,2261,2204,2008,1745175660453446992
6687646,2076,2318,2186,1994,1745175660453446992
6688646,2042,2373,2156,2001,1745175660453446992
6689646,2019,2438,2132,2022,1745175660453446992
6690649,2010,2529,2112,2059,1745175660453446992
6691646,2025,2595,2168,2102,1745175660453446992
6692647,1997,2721,2134,2162,1745175660453446992
6693647,2028,2730,2083,2141,1745175660453446992
6694647,1990,2734,2051,2124,1745175660453446992
6695647,1959,2738,2039,2049,1745175660453446992
6696647,1883,2648,1982,2033,1745175660453446992
6697647,1878,2665,2010,2044,1745175660453446992
6698647,1893,2684,2044,2049,1745175660453446992
6699647,1907,2707,2133,2063,1745175660453446992
6700647,1929,2734,2113,2043,1745175660453446992
6701647,1928,2752,2133,2034,1745175660453446992
6702647,1934,2776,2157,2032,1745175660453446992
6703647,1939,2808,2172,2036,1745175660453446992
6704648,1945,2832,2182,2043,1745175660453446992
6705648,1941,2858,2176,2052,1745175660453446992
6706648,1941,2885,2160,2075,1745175660453446992
6707648,1945,2928,2147,2080,1745175660453446992
6708648,1938,2948,2106,2078,1745175660453446992
6709648,1915,2978,2071,2076,1745175660453446992
6710648,1901,3005,2036,2069,1745175660453446992
6711648,1886,3033,2007,2052,1745175660453446992
6712648,1880,3054,1984,2038,1745175660453446992
6713648,1875,3072,1966,2022,1745175660453446992
6714648,1877,3077,1955,2006,1745175660453446992
6715648,1883,3072,1953,1987,1745175660453446992
6716649,1886,3077,1955,1973,1745175660453446992
6717649,1893,3058,1968,1957,1745175660453446992
6718649,1898,3050,1980,1947,1745175660453446992
6719649,1904,3038,2001,1936,1745175660453446992
6720649,1908,3037,2026,1932,1745175660453446992
6721649,1910,3043,2053,1932,1745175660453446992
6722649,1906,3067,2072,1942,1745175660453446992
6723649,1897,3095,2085,1957,1745175660453446992
6724649,1882,3126,2091,1973,1745175660453446992
6725649,1869,3148,2089,1989,1745175660453446992
6726649,1857,3169,2081,2002,1745175660453446992
6727649,1851,3184,2076,2016,1745175660453446992
6728650,1845,3197,2063,2021,1745175660453446992
6729650,1845,3202,2056,2017,1745175660453446992
6730650,1847,3208,2035,2000,1745175660453446992
6731650,1853,3203,2019,1973,1745175660453446992
6732650,1858,3199,2001,1942,1745175660453446992
6733650,1866,3189,1988,1910,1745175660453446992
6734650,1866,3178,1973,1877,1745175660453446992
6735650,1867,3160,1966,1849,1745175660453446992
6736650,1868,3140,1961,1828,1745175660453446992
6737650,1878,3116,1970,1817,1745175660453446992
6738650,1878,3083,1985,1817,1745175660514985076
6739650,1887,3048,2006,1817,1745175660514985076
6740651,1893,3021,2029,1822,1745175660514985076
6741651,1901,2997,2056,1826,1745175660514985076
6742651,1908,2981,2075,1827,1745175660514985076
6743651,1914,2970,2094,1834,1745175660514985076
6744651,1915,2972,2102,1839,1745175660514985076
6745651,1914,2980,2094,1851,1745175660514985076
6746651,1913,2994,2076,1851,1745175660514985076
6747651,1896,2995,2048,1858,1745175660514985076
6748651,1891,3008,2033,1867,1745175660514985076
6749652,1892,3114,2077,1918,1745175660514985076
6750651,1945,3100,1994,1865,1745175660514985076
6751651,1864,2981,1952,1873,1745175660514985076
6752652,1862,2978,1946,1914,1745175660514985076
6753652,1869,2974,1936,1949,1745175660514985076
6754652,1881,2950,1952,1983,1745175660514985076
6755652,1902,2922,1932,1988,1745175660514985076
6756652,1908,2875,1938,2001,1745175660514985076
6757652,1923,2826,1950,2004,1745175660514985076
6758652,1936,2786,1956,2003,1745175660514985076
6759652,1945,2752,1966,1997,1745175660514985076
6760652,1949,2734,1975,1994,1745175660514985076
6761652,1951,2722,1990,1990,1745175660514985076
6762652,1946,2723,2006,1980,1745175660514985076
6763652,1942,2721,2024,1969,1745175660514985076
6764653,1939,2722,2036,1951,1745175660514985076
6765653,1938,2723,2040,1944,1745175660514985076
6766653,1941,2718,2040,1937,1745175660514985076
6767653,1949,2715,2042,1939,1745175660514985076
6768653,1957,2700,2038,1950,1745175660514985076
6769653,1966,2688,2036,1968,1745175660514985076
6770653,1980,2664,2033,1989,1745175660514985076
6771653,1993,2637,2033,2003,1745175660514985076
6772653,2009,2607,2027,2009,1745175660514985076
6773653,2021,2573,2022,2002,1745175660514985076
6774653,2036,2554,2017,1990,1745175660514985076
6775653,2042,2525,2010,1977,1745175660514985076
6776654,2043,2500,2007,1964,1745175660514985076
6777654,2049,2479,2001,1956,1745175660514985076
6778654,2049,2458,2003,1944,1745175660514985076
6779654,2052,2445,2006,1934,1745175660514985076
6780654,2052,2437,2013,1931,1745175660514985076
6781654,2049,2440,2021,1939,1745175660514985076
6782654,2048,2450,2033,1947,1745175660514985076
6783654,2042,2466,2048,1957,1745175660514985076
6784654,2037,2478,2053,1966,1745175660514985076
6785654,2035,2486,2058,1970,1745175660514985076
6786654,2028,2491,2057,1980,1745175660514985076
6787654,2024,2492,2056,1997,1745175660514985076
6788655,2020,2492,2051,2012,1745175660514985076
6789655,2025,2484,2043,2033,1745175660514985076
6790655,2026,2477,2031,2049,1745175660514985076
6791655,2033,2465,2017,2062,1745175660514985076
6792655,2038,2443,2006,2062,1745175660514985076
6793655,2048,2416,1993,2062,1745175660514985076
6794655,2059,2384,1984,2049,1745175660514985076
6795655,2064,2352,1980,2024,1745175660514985076
6796655,2076,2317,1984,1994,1745175660575092756
6797655,2084,2282,1996,1966,1745175660575092756
6798655,2096,2245,2014,1951,1745175660575092756
6799655,2099,2213,2039,1942,1745175660575092756
6800656,2100,2185,2064,1945,1745175660575092756
6801656,2097,2164,2075,1953,1745175660575092756
6802656,2089,2150,2091,1976,1745175660575092756
6803656,2085,2138,2094,2002,1745175660575092756
6804656,2088,2140,2108,2043,1745175660575092756
6805656,2082,2149,2092,2060,1745175660575092756
6806656,2060,2138,2064,2090,1745175660575092756
6807656,2053,2158,2040,2085,1745175660575092756
6808657,2015,2153,2007,2084,1745175660575092756
6809656,2003,2180,1996,2090,1745175660575092756
6810656,2000,2156,1967,2146,1745175660575092756
6811656,2070,2211,2003,2129,1745175660575092756
6812657,2048,2116,1909,2036,1745175660575092756
6813657,1967,2075,1892,2029,1745175660575092756
6814657,1972,2057,1893,2017,1745175660575092756
6815657,1982,2037,1898,1997,1745175660575092756
6816657,2013,2020,1920,1990,1745175660575092756
6817657,2010,1976,1929,1971,1745175660575092756
6818657,2022,1942,1952,1977,1745175660575092756
6819657,2033,1910,1986,1995,1745175660575092756
6820657,2050,1878,2021,2016,1745175660575092756
6821657,2062,1846,2060,2035,1745175660575092756
6822657,2073,1820,2096,2052,1745175660575092756
6823657,2085,1795,2123,2059,1745175660575092756
6824658,2092,1780,2144,2061,1745175660575092756
6825658,2101,1775,2152,2062,1745175660575092756
6826658,2104,1777,2150,2053,1745175660575092756
6827658,2102,1787,2137,2040,1745175660575092756
6828658,2096,1793,2112,2026,1745175660575092756
6829658,2084,1805,2088,2017,1745175660575092756
6830658,2084,1810,2066,2011,1745175660575092756
6831658,2083,1819,2042,2004,1745175660575092756
6832658,2086,1819,2021,1995,1745175660575092756
6833658,2088,1815,1997,1986,1745175660575092756
6834658,2094,1804,1976,1981,1745175660575092756
6835658,2099,1793,1961,1980,1745175660575092756
6836659,2106,1774,1960,1981,1745175660575092756
6837659,2112,1760,1963,1987,1745175660575092756
6838659,2110,1740,1977,2000,1745175660575092756
6839659,2109,1726,1998,2019,1745175660575092756
6840659,2114,1712,2028,2039,1745175660575092756
6841659,2114,1702,2060,2050,1745175660575092756
6842659,2118,1695,2094,2058,1745175660575092756
6843659,2118,1698,2125,2065,1745175660575092756
6844659,2121,1707,2148,2074,1745175660575092756
6845659,2128,1714,2161,2074,1745175660575092756
6846659,2132,1725,2165,2067,1745175660575092756
6847659,2136,1736,2165,2058,1745175660575092756
6848660,2137,1749,2163,2060,1745175660575092756
6849660,2138,1763,2170,2075,1745175660575092756
6850660,2138,1776,2172,2093,1745175660575092756
6851660,2141,1791,2164,2113,1745175660575092756
6852660,2141,1805,2145,2123,1745175660575092756
6853660,2142,1820,2109,2138,1745175660575092756
6854660,2137,1833,2067,2144,1745175660632220724
6855660,2128,1844,2021,2150,1745175660632220724
6856660,2116,1854,1992,2154,1745175660632220724
6857660,2101,1864,1972,2161,1745175660632220724
6858660,2087,1868,1968,2169,1745175660632220724
6859660,2072,1874,1973,2178,1745175660632220724
6860661,2061,1881,1986,2196,1745175660632220724
6861661,2052,1892,2006,2190,1745175660632220724
6862661,2048,1909,2024,2193,1745175660632220724
6863662,2056,1934,2044,2190,1745175660632220724
6864661,2041,1945,2061,2189,1745175660632220724
6865661,2040,1965,2089,2202,1745175660632220724
6866661,2042,1966,2081,2193,1745175660632220724
6867661,2039,1969,2083,2199,1745175660632220724
6868661,2042,1969,2072,2200,1745175660632220724
6869661,2045,1965,2056,2197,1745175660632220724
6870661,2049,1965,2031,2266,1745175660632220724
6871661,2131,2040,2071,2238,1745175660632220724
6872662,2108,1970,1956,2118,1745175660632220724
6873662,2028,1956,1913,2097,1745175660632220724
6874662,2028,1962,1878,2085,1745175660632220724
6875662,2030,1963,1848,2089,1745175660632220724
6876662,2027,1956,1835,2098,1745175660632220724
6877662,2051,1956,1856,2107,1745175660632220724
6878662,2027,1922,1887,2101,1745175660632220724
6879662,2032,1901,1950,2100,1745175660632220724
6880662,2043,1881,2024,2093,1745175660632220724
6881662,2054,1865,2093,2082,1745175660632220724
6882662,2064,1851,2149,2072,1745175660632220724
6883662,2067,1844,2195,2064,1745175660632220724
6884663,2072,1837,2233,2066,1745175660632220724
6885663,2068,1837,2256,2069,1745175660632220724
6886663,2069,1836,2260,2071,1745175660632220724
6887663,2061,1841,2252,2078,1745175660632220724
6888663,2051,1844,2225,2069,1745175660632220724
6889663,2036,1849,2198,2053,1745175660632220724
6890663,2032,1850,2170,2034,1745175660632220724
6891663,2025,1853,2142,2025,1745175660632220724
6892663,2018,1859,2106,2025,1745175660632220724
6893663,2010,1857,2068,2025,1745175660632220724
6894663,2004,1852,2022,2026,1745175660632220724
6895663,2005,1836,1984,2036,1745175660632220724
6896664,2002,1824,1950,2050,1745175660632220724
6897664,2006,1812,1916,2063,1745175660632220724
6898664,1995,1811,1890,2070,1745175660632220724
6899664,1997,1807,1870,2075,1745175660632220724
6900664,2000,1796,1854,2075,1745175660632220724
6901664,2010,1780,1843,2077,1745175660632220724
6902664,2014,1757,1833,2070,1745175660632220724
6903664,2022,1733,1820,2065,1745175660632220724
6904664,2031,1710,1814,2059,1745175660632220724
6905664,2043,1694,1810,2058,1745175660632220724
6906664,2058,1690,1819,2058,1745175660632220724
6907664,2073,1703,1830,2067,1745175660632220724
6908665,2082,1729,1843,2069,1745175660632220724
6909665,2090,1755,1854,2068,1745175660632220724
6910665,2084,1776,1869,2066,1745175660632220724
6911665,2082,1791,1898,2073,1745175660632220724
6912665,2085,1800,1924,2057,1745175660683765044
6913665,2082,1787,1936,2036,1745175660683765044
6914665,2086,1771,1965,2020,1745175660683765044
6915665,2097,1754,2006,2008,1745175660683765044
6916665,2106,1736,2062,2005,1745175660683765044
6917665,2117,1723,2117,2012,1745175660683765044
6918665,2127,1712,2172,2035,1745175660683765044
6919665,2132,1710,2209,2073,1745175660683765044
6920666,2137,1711,2236,2118,1745175660683765044
6921666,2134,1722,2268,2158,1745175660683765044
6922666,2139,1723,2272,2193,1745175660683765044
6923666,2135,1732,2287,2224,1745175660683765044
6924666,2149,1752,2302,2221,1745175660683765044
6925666,2128,1740,2300,2214,1745175660683765044
6926666,2134,1740,2296,2205,1745175660683765044
6927666,2138,1739,2287,2189,1745175660683765044
6928666,2221,1800,2347,2246,1745175660683765044
6929666,2210,1772,2241,2144,1745175660683765044
6930666,2120,1700,2197,2132,1745175660683765044
6931666,2125,1702,2182,2121,1745175660683765044
6932667,2138,1715,2162,2107,1745175660683765044
6933667,2150,1742,2153,2098,1745175660683765044
6934667,2173,1730,2116,2079,1745175660683765044
6935668,2180,1741,2104,2072,1745175660683765044
6936667,2197,1733,2101,2069,1745175660683765044
6937667,2212,1729,2107,2069,1745175660683765044
6938667,2214,1698,2105,2076,1745175660683765044
6939667,2219,1677,2112,2088,1745175660683765044
6940667,2229,1654,2120,2105,1745175660683765044
6941667,2237,1642,2131,2115,1745175660683765044
6942667,2249,1632,2145,2130,1745175660683765044
6943667,2256,1636,2158,2138,1745175660683765044
6944668,2261,1650,2169,2144,1745175660683765044
6945668,2257,1681,2166,2145,1745175660683765044
6946668,2250,1723,2154,2141,1745175660683765044
6947668,2235,1777,2130,2135,1745175660683765044
6948668,2221,1841,2094,2125,1745175660683765044
6949668,2203,1907,2056,2114,1745175660683765044
6950668,2192,1965,2018,2097,1745175660683765044
6951668,2179,2011,1985,2072,1745175660683765044
6952668,2178,2040,1955,2043,1745175660683765044
6953668,2179,2053,1933,2012,1745175660683765044
6954668,2193,2048,1920,1987,1745175660683765044
6955668,2196,2028,1914,1969,1745175660683765044
6956669,2206,1999,1915,1968,1745175660683765044
6957669,2213,1973,1927,1974,1745175660683765044
6958669,2220,1948,1942,1985,1745175660683765044
6959669,2219,1929,1966,1993,1745175660683765044
6960669,2217,1913,1991,2006,1745175660683765044
6961669,2205,1906,2012,2018,1745175660683765044
6962669,2196,1897,2029,2030,1745175660683765044
6963669,2185,1891,2044,2040,1745175660683765044
6964669,2175,1880,2054,2057,1745175660683765044
6965669,2161,1872,2051,2064,1745175660683765044
6966669,2153,1862,2036,2075,1745175660683765044
6967669,2146,1866,2026,2082,1745175660683765044
6968670,2134,1857,1996,2076,1745175660683765044
6969670,2117,1856,1972,2068,1745175660683765044
6970670,2107,1853,1945,2062,1745175660747361286
6971670,2094,1848,1925,2057,1745175660747361286
6972670,2082,1905,1910,2063,1745175660747361286
6973670,2068,1825,1873,2041,1745175660747361286
6974670,2058,1815,1854,2043,1745175660747361286
6975670,2035,1802,1843,2040,1745175660747361286
6976670,2024,1787,1857,2057,1745175660747361286
6977670,2022,1773,1854,2048,1745175660747361286
6978670,2012,1743,1876,2057,1745175660747361286
6979670,2015,1723,1916,2077,1745175660747361286
6980671,2028,1711,1955,2077,1745175660747361286
6981671,2030,1701,1996,2088,1745175660747361286
6982671,2049,1710,2042,2178,1745175660747361286
6983671,2113,1763,2122,2161,1745175660747361286
6984671,2038,1712,2054,2070,1745175660747361286
6985671,1997,1718,2058,2056,1745175660747361286
6986671,1989,1759,2092,2077,1745175660747361286
6987671,1993,1782,2087,2029,1745175660747361286
6988671,1990,1798,2002,1976,1745175660747361286
6989671,1972,1812,1976,1965,1745175660747361286
6990671,1974,1827,1948,1960,1745175660747361286
6991671,1978,1828,1923,1954,1745175660747361286
6992672,1985,1830,1897,1956,1745175660747361286
6993672,1992,1829,1870,1958,1745175660747361286
6994672,1995,1829,1850,1965,1745175660747361286
6995672,1994,1827,1841,1979,1745175660747361286
6996672,1994,1825,1848,1996,1745175660747361286
6997672,1992,1829,1865,2018,1745175660747361286
6998672,1987,1835,1891,2043,1745175660747361286
6999672,1985,1849,1932,2076,1745175660747361286
7000672,1983,1859,1971,2098,1745175660747361286
7001672,1982,1871,2012,2116,1745175660747361286
7002672,1982,1884,2056,2123,1745175660747361286
7003672,1984,1901,2090,2129,1745175660747361286
7004673,1980,1914,2118,2131,1745175660747361286
7005673,1978,1930,2131,2140,1745175660747361286
7006673,1976,1940,2131,2138,1745175660747361286
7007673,1970,1952,2123,2132,1745175660747361286
7008673,1971,1952,2105,2121,1745175660747361286
7009673,1972,1956,2082,2109,1745175660747361286
7010673,1975,1942,2060,2111,1745175660747361286
7011673,1981,1925,2039,2118,1745175660747361286
7012673,1993,1890,2020,2131,1745175660747361286
7013673,2009,1850,2010,2127,1745175660747361286
7014673,2037,1817,2009,2118,1745175660747361286
7015673,2051,1770,2002,2080,1745175660747361286
7016674,2057,1733,2004,2043,1745175660747361286
7017674,2067,1707,2024,2005,1745175660747361286
7018674,2072,1693,2050,1968,1745175660747361286
7019674,2074,1689,2069,1945,1745175660747361286
7020674,2064,1700,2089,1937,1745175660747361286
7021674,2049,1727,2096,1952,1745175660747361286
7022674,2025,1760,2102,1979,1745175660747361286
7023674,2009,1785,2110,2010,1745175660747361286
7024674,1995,1803,2122,2034,1745175660747361286
7025674,1987,1817,2123,2054,1745175660747361286
7026674,1979,1828,2113,2059,1745175660747361286
7027674,1978,1837,2091,2058,1745175660747361286
7028675,1981,1839,2060,2056,1745175660805960387
7029675,1985,1842,2024,2056,1745175660805960387
7030675,1993,1836,1990,2060,1745175660805960387
7031675,1992,1828,1959,2065,1745175660805960387
7032675,1999,1816,1930,2066,1745175660805960387
7033675,1997,1802,1902,2061,1745175660805960387
7034675,2000,1788,1882,2057,1745175660805960387
7035675,2000,1776,1875,2054,1745175660805960387
7036675,2004,1771,1884,2057,1745175660805960387
7037675,2006,1776,1905,2061,1745175660805960387
7038676,2008,1797,1945,2056,1745175660805960387
7039675,1954,1750,1906,2022,1745175660805960387
7040676,1949,1769,1950,2044,1745175660805960387
7041676,1977,1806,1992,2054,1745175660805960387
7042676,2000,1858,2056,2084,1745175660805960387
7043676,2030,1929,2142,2135,1745175660805960387
7044676,2076,1924,2083,2054,1745175660805960387
7045676,1985,1866,2065,2039,1745175660805960387
7046676,1976,1888,2073,2049,1745175660805960387
7047676,1984,1908,2073,2053,1745175660805960387
7048676,1995,1920,2078,2062,1745175660805960387
7049676,2018,1924,2056,2040,1745175660805960387
7050676,2026,1914,2029,2029,1745175660805960387
7051676,2049,1910,2008,2026,1745175660805960387
7052677,2064,1905,1982,2025,1745175660805960387
7053677,2072,1905,1953,2026,1745175660805960387
7054677,2071,1914,1926,2029,1745175660805960387
7055677,2058,1929,1899,2039,1745175660805960387
7056677,2041,1944,1885,2053,1745175660805960387
7057677,2028,1958,1885,2076,1745175660805960387
7058677,2021,1972,1899,2099,1745175660805960387
7059677,2020,1982,1923,2121,1745175660805960387
7060677,2024,1990,1956,2136,1745175660805960387
7061677,2027,2000,1986,2141,1745175660805960387
7062677,2034,2004,2015,2134,1745175660805960387
7063677,2038,2010,2040,2122,1745175660805960387
7064678,2041,2012,2061,2104,1745175660805960387
7065678,2042,2010,2069,2089,1745175660805960387
7066678,2043,2016,2067,2073,1745175660805960387
7067678,2048,2015,2054,2059,1745175660805960387
7068678,2051,2018,2031,2051,1745175660805960387
7069678,2055,2022,2008,2048,1745175660805960387
7070678,2059,2025,1987,2049,1745175660805960387
7071678,2060,2027,1964,2048,1745175660805960387
7072678,2067,2017,1945,2028,1745175660805960387
7073678,2080,2002,1925,2008,1745175660805960387
7074678,2095,1982,1916,1983,1745175660805960387
7075678,2112,1962,1914,1976,1745175660805960387
7076679,2128,1944,1930,1982,1745175660805960387
7077679,2141,1932,1957,1995,1745175660805960387
7078679,2146,1928,1988,2006,1745175660805960387
7079679,2145,1930,2026,2012,1745175660805960387
7080679,2142,1935,2062,2018,1745175660805960387
7081679,2134,1943,2094,2025,1745175660805960387
7082679,2132,1952,2122,2038,1745175660805960387
7083679,2131,1960,2148,2057,1745175660805960387
7084679,2134,1969,2171,2076,1745175660805960387
7085679,2136,1980,2188,2092,1745175660805960387
7086679,2136,1995,2193,2101,1745175660863558767
7087679,2132,2010,2185,2098,1745175660863558767
7088680,2123,2027,2170,2081,1745175660863558767
7089680,2123,2041,2149,2053,1745175660863558767
7090680,2128,2044,2126,2021,1745175660863558767
7091680,2130,2035,2099,1997,1745175660863558767
7092680,2138,2033,2069,1983,1745175660863558767
7093680,2144,2021,2034,1977,1745175660863558767
7094680,2149,2009,1999,1992,1745175660863558767
7095680,2145,2002,1975,2021,1745175660863558767
7096680,2142,2004,1968,2078,1745175660863558767
7097680,2132,2018,1971,2101,1745175660863558767
7098680,2121,2032,1990,2129,1745175660863558767
7099680,2130,2067,2036,2154,1745175660863558767
7100681,2121,2062,2056,2135,1745175660863558767
7101681,2128,2123,2105,2211,1745175660863558767
7102681,2176,2143,2194,2195,1745175660863558767
7103681,2113,2077,2141,2119,1745175660863558767
7104681,2073,2066,2170,2133,1745175660863558767
7105681,2076,2082,2188,2145,1745175660863558767
7106681,2083,2090,2189,2151,1745175660863558767
7107681,2108,2112,2190,2152,1745175660863558767
7108681,2098,2091,2155,2141,1745175660863558767
7109681,2104,2090,2126,2133,1745175660863558767
7110681,2110,2085,2101,2114,1745175660863558767
7111681,2115,2081,2069,2102,1745175660863558767
7112682,2121,2074,2041,2083,1745175660863558767
7113682,2123,2066,2012,2070,1745175660863558767
7114682,2129,2041,1984,2051,1745175660863558767
7115682,2130,2008,1971,2028,1745175660863558767
7116682,2140,1973,1980,2021,1745175660863558767
7117682,2156,1926,1996,2002,1745175660863558767
7118682,2160,1875,2018,2002,1745175660863558767
7119682,2162,1836,2061,2012,1745175660863558767
7120682,2162,1809,2105,2033,1745175660863558767
7121682,2158,1793,2146,2065,1745175660863558767
7122682,2150,1788,2182,2088,1745175660863558767
7123682,2148,1785,2213,2104,1745175660863558767
7124683,2145,1788,2235,2114,1745175660863558767
7125683,2142,1797,2238,2115,1745175660863558767
7126683,2140,1805,2226,2109,1745175660863558767
7127683,2132,1822,2199,2098,1745175660863558767
7128683,2123,1838,2160,2082,1745175660863558767
7129683,2111,1859,2116,2061,1745175660863558767
7130683,2100,1884,2072,2044,1745175660863558767
7131683,2081,1913,2028,2037,1745175660863558767
7132683,2060,1943,1987,2032,1745175660863558767
7133683,2037,1964,1944,2023,1745175660863558767
7134683,2018,1971,1912,2017,1745175660863558767
7135683,2013,1979,1893,2020,1745175660863558767
7136684,2012,1973,1895,2018,1745175660863558767
7137684,2016,1969,1909,2030,1745175660863558767
7138684,2014,1957,1938,2044,1745175660863558767
7139684,2017,1952,1979,2066,1745175660863558767
7140684,2022,1943,2022,2091,1745175660863558767
7141684,2022,1938,2067,2110,1745175660863558767
7142684,2026,1935,2102,2130,1745175660863558767
7143684,2027,1938,2137,2138,1745175660863558767
7144684,2025,1950,2161,2141,1745175660923141347
7145684,2026,1964,2172,2147,1745175660923141347
7146684,2021,1985,2170,2148,1745175660923141347
7147684,2024,1999,2148,2146,1745175660923141347
7148685,2014,2009,2121,2138,1745175660923141347
7149685,2008,2017,2096,2130,1745175660923141347
7150685,2004,2018,2061,2115,1745175660923141347
7151685,1998,2021,2032,2091,1745175660923141347
7152685,1995,2016,2009,2063,1745175660923141347
7153685,1990,2013,1987,2026,1745175660923141347
7154685,1990,2010,1964,1996,1745175660923141347
7155685,1990,2018,1956,1985,1745175660923141347
7156685,1988,2016,1953,1992,1745175660923141347
7157685,1979,2026,1978,2023,1745175660923141347
7158685,1987,2069,2014,2030,1745175660923141347
7159685,1953,2083,2093,2093,1745175660923141347
7160686,2007,2096,2113,2008,1745175660923141347
7161686,1921,2000,2076,1981,1745175660923141347
7162686,1908,1995,2117,1986,1745175660923141347
7163686,1913,1996,2156,2006,1745175660923141347
7164687,1916,2010,2204,2061,1745175660923141347
7165686,1922,2036,2201,2085,1745175660923141347
7166686,1912,2056,2197,2128,1745175660923141347
7167686,1909,2081,2187,2153,1745175660923141347
7168686,1905,2106,2153,2155,1745175660923141347
7169686,1900,2129,2117,2141,1745175660923141347
7170686,1896,2148,2078,2114,1745175660923141347
7171686,1895,2158,2041,2076,1745175660923141347
7172687,1893,2172,2009,2034,1745175660923141347
7173687,1893,2182,1970,1992,1745175660923141347
7174687,1892,2186,1942,1949,1745175660923141347
7175687,1896,2179,1929,1918,1745175660923141347
7176687,1904,2171,1933,1898,1745175660923141347
7177687,1913,2176,1952,1883,1745175660923141347
7178687,1930,2181,1976,1873,1745175660923141347
7179687,1941,2180,2008,1862,1745175660923141347
7180687,1953,2170,2043,1862,1745175660923141347
7181687,1963,2156,2083,1875,1745175660923141347
7182687,1972,2147,2120,1901,1745175660923141347
7183687,1978,2141,2157,1932,1745175660923141347
7184688,1984,2142,2186,1968,1745175660923141347
7185688,1993,2136,2204,2001,1745175660923141347
7186688,2000,2134,2207,2019,1745175660923141347
7187688,2009,2122,2196,2031,1745175660923141347
7188688,2016,2101,2174,2020,1745175660923141347
7189688,2026,2080,2142,1993,1745175660923141347
7190688,2032,2059,2106,1950,1745175660923141347
7191688,2037,2043,2065,1910,1745175660923141347
7192688,2037,2031,2021,1885,1745175660923141347
7193688,2033,2030,1979,1874,1745175660923141347
7194688,2032,2042,1936,1878,1745175660923141347
7195688,2019,2058,1904,1885,1745175660923141347
7196689,2012,2073,1888,1902,1745175660923141347
7197689,2008,2076,1891,1920,1745175660923141347
7198689,2010,2069,1910,1929,1745175660923141347
7199689,2020,2051,1946,1930,1745175660923141347
7200689,2028,2029,1990,1921,1745175660923141347
7201689,2040,2009,2034,1908,1745175660923141347
7202689,2048,1992,2079,1900,1745175660984573442
7203689,2054,1981,2117,1908,1745175660984573442
7204689,2059,1977,2150,1921,1745175660984573442
7205689,2072,1979,2168,1946,1745175660984573442
7206689,2081,1988,2173,1969,1745175660984573442
7207689,2085,2005,2160,2000,1745175660984573442
7208690,2088,2029,2140,2031,1745175660984573442
7209690,2080,2062,2104,2064,1745175660984573442
7210690,2073,2087,2066,2089,1745175660984573442
7211690,2064,2107,2025,2108,1745175660984573442
7212690,2060,2114,1985,2116,1745175660984573442
7213690,2054,2115,1945,2122,1745175660984573442
7214691,2064,2112,1909,2113,1745175660984573442
7215690,2056,2110,1888,2102,1745175660984573442
7216690,2050,2083,1890,2120,1745175660984573442
7217690,2060,2050,1888,2076,1745175660984573442
7218690,2060,2018,1922,2075,1745175660984573442
7219690,2166,2086,2051,2152,1745175660984573442
7220691,2160,1995,2020,2061,1745175660984573442
7221691,2081,1950,2052,2061,1745175660984573442
7222691,2096,1957,2102,2068,1745175660984573442
7223691,2112,1979,2145,2076,1745175660984573442
7224691,2123,2027,2185,2094,1745175660984573442
7225691,2125,2051,2178,2081,1745175660984573442
7226691,2120,2096,2172,2091,1745175660984573442
7227691,2116,2149,2156,2099,1745175660984573442
7228691,2110,2196,2125,2111,1745175660984573442
7229691,2105,2245,2091,2121,1745175660984573442
7230691,2105,2283,2057,2123,1745175660984573442
7231691,2106,2312,2020,2123,1745175660984573442
7232692,2111,2331,1989,2120,1745175660984573442
7233692,2116,2345,1957,2114,1745175660984573442
7234692,2124,2348,1932,2107,1745175660984573442
7235692,2130,2352,1914,2100,1745175660984573442
7236692,2139,2344,1912,2094,1745175660984573442
7237692,2154,2337,1928,2078,1745175660984573442
7238692,2154,2320,1954,2081,1745175660984573442
7239692,2161,2314,1996,2080,1745175660984573442
7240692,2169,2304,2043,2085,1745175660984573442
7241692,2168,2301,2090,2108,1745175660984573442
7242692,2169,2300,2132,2138,1745175660984573442
7243692,2161,2307,2170,2168,1745175660984573442
7244693,2155,2314,2201,2186,1745175660984573442
7245693,2136,2332,2216,2192,1745175660984573442
7246693,2132,2345,2212,2184,1745175660984573442
7247693,2117,2363,2191,2163,1745175660984573442
7248693,2104,2370,2155,2138,1745175660984573442
7249693,2089,2378,2113,2113,1745175660984573442
7250693,2076,2373,2072,2092,1745175660984573442
7251693,2065,2365,2027,2078,1745175660984573442
7252693,2060,2346,1994,2059,1745175660984573442
7253693,2056,2328,1962,2038,1745175660984573442
7254693,2057,2300,1936,2019,1745175660984573442
7255693,2058,2278,1920,2003,1745175660984573442
7256694,2063,2251,1923,1987,1745175660984573442
7257694,2066,2224,1940,1971,1745175660984573442
7258694,2075,2188,1968,1961,1745175660984573442
7259694,2083,2153,2008,1963,1745175660984573442
7260694,2094,2114,2051,1980,1745175661044938933
7261694,2107,2080,2092,2001,1745175661044938933
7262694,2113,2056,2124,2024,1745175661044938933
7263694,2108,2049,2155,2049,1745175661044938933
7264694,2101,2052,2172,2076,1745175661044938933
7265694,2085,2069,2185,2092,1745175661044938933
7266694,2070,2098,2185,2109,1745175661044938933
7267694,2056,2136,2181,2116,1745175661044938933
7268695,2034,2176,2160,2118,1745175661044938933
7269695,2015,2213,2129,2111,1745175661044938933
7270695,1992,2246,2088,2101,1745175661044938933
7271695,1981,2266,2041,2090,1745175661044938933
7272695,1964,2280,2002,2077,1745175661044938933
7273695,1962,2259,1956,2068,1745175661044938933
7274695,1964,2240,1930,2075,1745175661044938933
7275696,1981,2223,1899,2051,1745175661044938933
7276695,1967,2184,1892,2050,1745175661044938933
7277695,1972,2162,1905,2056,1745175661044938933
7278695,1978,2139,1930,2058,1745175661044938933
7279695,1982,2122,1966,2068,1745175661044938933
7280696,2017,2147,2083,2128,1745175661044938933
7281696,2057,2159,2104,2052,1745175661044938933
7282696,1973,2067,2060,2037,1745175661044938933
7283696,1962,2066,2104,2052,1745175661044938933
7284696,1968,2072,2140,2064,1745175661044938933
7285696,1975,2075,2166,2089,1745175661044938933
7286696,1990,2085,2171,2062,1745175661044938933
7287696,1983,2080,2164,2056,1745175661044938933
7288696,1985,2087,2140,2044,1745175661044938933
7289696,1990,2087,2115,2031,1745175661044938933
7290696,1998,2086,2086,2016,1745175661044938933
7291696,2006,2076,2062,2002,1745175661044938933
7292697,2014,2064,2034,1984,1745175661044938933
7293697,2021,2048,2006,1966,1745175661044938933
7294697,2029,2027,1976,1956,1745175661044938933
7295697,2038,2010,1962,1950,1745175661044938933
7296697,2049,1992,1963,1952,1745175661044938933
7297697,2057,1973,1979,1962,1745175661044938933
7298697,2062,1961,1997,1978,1745175661044938933
7299697,2071,1943,2025,1995,1745175661044938933
7300697,2078,1930,2058,2003,1745175661044938933
7301697,2081,1914,2094,2011,1745175661044938933
7302697,2076,1908,2122,2011,1745175661044938933
7303697,2074,1903,2149,2009,1745175661044938933
7304698,2062,1920,2168,2007,1745175661044938933
7305698,2052,1941,2172,2009,1745175661044938933
7306698,2033,1973,2165,2013,1745175661044938933
7307698,2019,2014,2144,2019,1745175661044938933
7308698,2002,2043,2112,2020,1745175661044938933
7309698,1990,2068,2077,2026,1745175661044938933
7310698,1978,2088,2041,2032,1745175661044938933
7311698,1968,2101,2008,2040,1745175661044938933
7312698,1957,2106,1971,2040,1745175661044938933
7313698,1952,2103,1933,2038,1745175661044938933
7314698,1949,2091,1901,2032,1745175661044938933
7315698,1953,2070,1878,2024,1745175661044938933
7316699,1960,2032,1873,2014,1745175661044938933
7317699,1969,2014,1883,2010,1745175661044938933
7318699,1979,1987,1906,2010,1745175661097087362
7319699,1986,1961,1936,2010,1745175661097087362
7320699,1994,1945,1974,2021,1745175661097087362
7321699,2002,1944,2023,2040,1745175661097087362
7322700,2027,1929,2052,2038,1745175661097087362
7323700,2017,1921,2088,2043,1745175661097087362
7324699,2021,1918,2117,2044,1745175661097087362
7325700,2033,1922,2138,2041,1745175661097087362
7326699,2027,1930,2142,2034,1745175661097087362
7327699,2029,1937,2136,2022,1745175661097087362
7328700,2028,1948,2116,2010,1745175661097087362
7329700,2027,1958,2089,2002,1745175661097087362
7330700,2024,1970,2059,2005,1745175661097087362
7331701,2029,1977,2022,1986,1745175661097087362
7332700,2020,1983,1988,1972,1745175661097087362
7333700,2028,1994,1965,1969,1745175661097087362
7334700,2012,1982,1915,1958,1745175661097087362
7335700,2013,1974,1891,1957,1745175661097087362
7336700,2016,1966,1885,1954,1745175661097087362
7337700,2033,1950,1896,1955,1745175661097087362
7338700,2031,1932,1915,1962,1745175661097087362
7339700,2041,1915,1947,1971,1745175661097087362
7340701,2050,1898,1988,1972,1745175661097087362
7341701,2142,1966,2117,2048,1745175661097087362
7342701,2138,1873,2064,1944,1745175661097087362
7343701,2048,1847,2136,2027,1745175661097087362
7344701,2140,1923,2221,1945,1745175661097087362
7345701,2048,1848,2152,1930,1745175661097087362
7346701,2038,1868,2168,1953,1745175661097087362
7347701,2040,1906,2156,1974,1745175661097087362
7348701,2025,1914,2120,1994,1745175661097087362
7349701,2013,1947,2082,2021,1745175661097087362
7350701,2003,1979,2041,2034,1745175661097087362
7351701,1996,2007,2001,2043,1745175661097087362
7352702,1989,2030,1965,2035,1745175661097087362
7353702,1987,2051,1926,2027,1745175661097087362
7354702,1985,2065,1890,2016,1745175661097087362
7355702,1988,2072,1858,2011,1745175661097087362
7356702,1988,2073,1840,2006,1745175661097087362
7357702,1993,2067,1837,2012,1745175661097087362
7358702,1993,2059,1842,2024,1745175661097087362
7359702,1995,2056,1866,2045,1745175661097087362
7360702,1996,2061,1896,2076,1745175661097087362
7361702,1996,2069,1931,2105,1745175661097087362
7362702,2002,2077,1962,2132,1745175661097087362
7363702,2004,2084,1997,2149,1745175661097087362
7364703,2009,2089,2033,2161,1745175661097087362
7365703,2013,2090,2074,2171,1745175661097087362
7366703,2025,2085,2096,2176,1745175661097087362
7367703,2035,2077,2112,2171,1745175661097087362
7368703,2049,2065,2107,2156,1745175661097087362
7369703,2061,2050,2096,2134,1745175661097087362
7370703,2070,2040,2072,2114,1745175661097087362
7371703,2077,2031,2037,2097,1745175661097087362
7372703,2072,2033,2001,2080,1745175661097087362
7373703,2069,2039,1954,2064,1745175661097087362
7374703,2057,2051,1907,2048,1745175661097087362
7375703,2043,2061,1872,2037,1745175661097087362
7376704,2035,2063,1862,2029,1745175661155381517
7377704,2032,2062,1875,2021,1745175661155381517
7378704,2036,2049,1908,2015,1745175661155381517
7379704,2044,2035,1955,2009,1745175661155381517
7380704,2057,2020,2005,2010,1745175661155381517
7381704,2064,2009,2058,2010,1745175661155381517
7382704,2072,2004,2098,2020,1745175661155381517
7383704,2074,2003,2132,2036,1745175661155381517
7384704,2073,2012,2152,2062,1745175661155381517
7385704,2062,2026,2162,2084,1745175661155381517
7386704,2053,2048,2156,2094,1745175661155381517
7387704,2044,2066,2142,2099,1745175661155381517
7388705,2041,2078,2118,2090,1745175661155381517
7389705,2053,2092,2096,2075,1745175661155381517
7390705,2042,2080,2064,2054,1745175661155381517
7391705,2050,2073,2041,2043,1745175661155381517
7392705,2059,2059,2083,2091,1745175661155381517
7393706,2137,2113,1974,1984,1745175661155381517
7394705,2042,1995,1928,1969,1745175661155381517
7395705,2042,1982,1913,1976,1745175661155381517
7396705,2054,1971,1920,1990,1745175661155381517
7397705,2070,1973,1937,2018,1745175661155381517
7398705,2077,1972,1964,2021,1745175661155381517
7399705,2073,1976,2002,2030,1745175661155381517
7400706,2082,1979,2048,2037,1745175661155381517
7401706,2084,1993,2090,2037,1745175661155381517
7402706,2088,2012,2130,2049,1745175661155381517
7403706,2082,2029,2168,2068,1745175661155381517
7404706,2083,2049,2201,2097,1745175661155381517
7405706,2081,2060,2222,2122,1745175661155381517
7406706,2081,2069,2235,2139,1745175661155381517
7407706,2083,2080,2236,2145,1745175661155381517
7408706,2086,2078,2221,2143,1745175661155381517
7409706,2088,2083,2202,2132,1745175661155381517
7410706,2089,2095,2174,2122,1745175661155381517
7411706,2075,2104,2139,2104,1745175661155381517
7412707,2061,2118,2098,2086,1745175661155381517
7413707,2048,2125,2057,2065,1745175661155381517
7414707,2033,2143,2005,2056,1745175661155381517
7415707,2018,2155,1970,2048,1745175661155381517
7416707,2005,2168,1946,2043,1745175661155381517
7417707,1995,2176,1945,2035,1745175661155381517
7418707,1993,2168,1962,2029,1745175661155381517
7419707,1993,2153,1997,2022,1745175661155381517
7420707,1998,2130,2048,2021,1745175661155381517
7421707,2004,2110,2099,2026,1745175661155381517
7422707,2014,2085,2150,2033,1745175661155381517
7423707,2022,2073,2204,2061,1745175661155381517
7424708,2036,2078,2249,2070,1745175661155381517
7425708,2034,2073,2261,2094,1745175661155381517
7426708,2034,2077,2266,2109,1745175661155381517
7427708,2034,2084,2252,2120,1745175661155381517
7428708,2037,2081,2230,2114,1745175661155381517
7429708,2042,2078,2200,2098,1745175661155381517
7430708,2045,2069,2171,2081,1745175661155381517
7431708,2053,2060,2140,2059,1745175661155381517
7432708,2063,2042,2113,2041,1745175661155381517
7433708,2072,2026,2082,2029,1745175661155381517
7434708,2081,2005,2050,2021,1745175661211456630
7435708,2086,1988,2025,2012,1745175661211456630
7436709,2091,1970,2010,2013,1745175661211456630
7437709,2096,1962,2008,2017,1745175661211456630
7438709,2088,1947,2018,2033,1745175661211456630
7439709,2082,1942,2043,2051,1745175661211456630
7440709,2081,1932,2080,2063,1745175661211456630
7441709,2077,1930,2114,2073,1745175661211456630
7442709,2077,1929,2149,2070,1745175661211456630
7443709,2077,1930,2179,2067,1745175661211456630
7444709,2074,1933,2210,2054,1745175661211456630
7445709,2072,1945,2228,2042,1745175661211456630
7446709,2067,1963,2236,2029,1745175661211456630
7447709,2060,1985,2236,2029,1745175661211456630
7448710,2064,1992,2209,2026,1745175661211456630
7449710,2048,1961,2125,1966,1745175661211456630
7450710,2014,1978,2118,1988,1745175661211456630
7451710,2027,2001,2128,2031,1745175661211456630
7452710,2124,2029,2081,2113,1745175661211456630
7453710,2137,2099,2107,2050,1745175661211456630
7454710,2026,2004,1971,2018,1745175661211456630
7455710,2002,2012,1942,2043,1745175661211456630
7456710,1996,2026,1942,2072,1745175661211456630
7457710,2005,2035,1944,2086,1745175661211456630
7458710,2008,2016,1971,2097,1745175661211456630
7459710,2025,2002,2016,2102,1745175661211456630
7460711,2041,1980,2069,2101,1745175661211456630
7461711,2060,1966,2116,2101,1745175661211456630
7462711,2072,1960,2160,2100,1745175661211456630
7463711,2083,1961,2192,2104,1745175661211456630
7464711,2081,1970,2214,2108,1745175661211456630
7465711,2074,2001,2216,2113,1745175661211456630
7466711,2052,2032,2196,2107,1745175661211456630
7467711,2030,2070,2161,2096,1745175661211456630
7468711,2011,2096,2120,2080,1745175661211456630
7469711,2001,2118,2076,2068,1745175661211456630
7470711,1998,2132,2036,2059,1745175661211456630
7471711,1997,2141,1997,2048,1745175661211456630
7472712,2001,2141,1961,2037,1745175661211456630
7473712,1998,2137,1928,2027,1745175661211456630
7474712,2003,2126,1890,2021,1745175661211456630
7475712,2006,2112,1869,2024,1745175661211456630
7476712,2016,2096,1865,2034,1745175661211456630
7477712,2027,2081,1885,2040,1745175661211456630
7478712,2041,2054,1916,2051,1745175661211456630
7479712,2060,2027,1965,2048,1745175661211456630
7480712,2073,2001,2015,2034,1745175661211456630
7481712,2089,1970,2064,2017,1745175661211456630
7482712,2098,1946,2103,1996,1745175661211456630
7483712,2110,1928,2133,1983,1745175661211456630
7484713,2115,1916,2161,1981,1745175661211456630
7485713,2120,1918,2173,1997,1745175661211456630
7486713,2113,1941,2177,2021,1745175661211456630
7487713,2094,1986,2165,2058,1745175661211456630
7488713,2081,2038,2140,2090,1745175661211456630
7489713,2058,2097,2104,2104,1745175661211456630
7490713,2042,2144,2066,2106,1745175661211456630
7491713,2028,2173,2028,2100,1745175661211456630
7492713,2027,2191,1993,2088,1745175661275646408
7493713,2021,2201,1959,2074,1745175661275646408
7494713,2022,2205,1916,2064,1745175661275646408
7495713,2016,2200,1883,2060,1745175661275646408
7496714,2011,2193,1858,2070,1745175661275646408
7497714,2007,2182,1856,2086,1745175661275646408
7498714,2005,2161,1874,2096,1745175661275646408
7499714,2012,2133,1912,2099,1745175661275646408
7500714,2024,2099,1970,2096,1745175661275646408
7501714,2038,2068,2020,2098,1745175661275646408
7502714,2057,2040,2078,2102,1745175661275646408
7503714,2068,2024,2126,2109,1745175661275646408
7504714,2077,2018,2166,2107,1745175661275646408
7505714,2077,2030,2188,2109,1745175661275646408
7506714,2083,2062,2190,2109,1745175661275646408
7507714,2063,2134,2177,2064,1745175661275646408
7508715,1992,2091,2089,2069,1745175661275646408
7509715,2002,2141,2088,2081,1745175661275646408
7510715,2061,2202,2121,2127,1745175661275646408
7511715,2107,2274,2080,2009,1745175661275646408
7512715,2006,2224,1967,1984,1745175661275646408
7513715,2010,2165,1934,1975,1745175661275646408
7514715,2014,2156,1912,1987,1745175661275646408
7515715,2034,2145,1898,2003,1745175661275646408
7516715,2052,2131,1899,2022,1745175661275646408
7517715,2072,2114,1913,2040,1745175661275646408
7518715,2082,2097,1928,2052,1745175661275646408
7519715,2090,2080,1956,2056,1745175661275646408
7520716,2090,2068,1990,2054,1745175661275646408
7521716,2088,2057,2030,2048,1745175661275646408
7522716,2084,2052,2069,2041,1745175661275646408
7523716,2081,2052,2102,2041,1745175661275646408
7524716,2068,2058,2131,2034,1745175661275646408
7525716,2061,2072,2155,2041,1745175661275646408
7526716,2067,2097,2171,2057,1745175661275646408
7527716,2059,2112,2156,2058,1745175661275646408
7528716,2050,2112,2131,2054,1745175661275646408
7529716,2053,2119,2097,2057,1745175661275646408
7530716,2049,2121,2065,2057,1745175661275646408
7531716,2050,2122,2027,2058,1745175661275646408
7532717,2054,2113,1993,2054,1745175661275646408
7533717,2053,2107,1956,2052,1745175661275646408
7534717,2057,2098,1924,2055,1745175661275646408
7535717,2056,2093,1901,2060,1745175661275646408
7536717,2057,2086,1896,2068,1745175661275646408
7537717,2064,2090,1904,2074,1745175661275646408
7538717,2054,2081,1930,2076,1745175661275646408
7539717,2053,2084,1960,2069,1745175661275646408
7540717,2056,2082,1997,2058,1745175661275646408
7541717,2058,2076,2033,2048,1745175661275646408
7542717,2060,2067,2070,2054,1745175661275646408
7543717,2058,2060,2102,2077,1745175661275646408
7544718,2059,2052,2137,2101,1745175661275646408
7545718,2056,2052,2166,2123,1745175661275646408
7546718,2055,2058,2181,2141,1745175661275646408
7547718,2052,2075,2179,2144,1745175661275646408
7548718,2049,2089,2160,2131,1745175661275646408
7549718,2040,2113,2128,2101,1745175661275646408
7550718,2036,2120,2089,2056,1745175661330123098
7551718,2031,2134,2042,2002,1745175661330123098
7552718,2032,2140,1997,1964,1745175661330123098
7553718,2025,2144,1952,1944,1745175661330123098
7554718,2021,2145,1909,1945,1745175661330123098
7555718,2017,2144,1876,1955,1745175661330123098
7556719,2017,2133,1860,1977,1745175661330123098
7557719,2014,2122,1862,1993,1745175661330123098
7558719,2018,2102,1882,2012,1745175661330123098
7559719,2021,2081,1921,2021,1745175661330123098
7560719,2025,2064,1968,2032,1745175661330123098
7561719,2028,2050,2021,2034,1745175661330123098
7562719,2033,2043,2070,2050,1745175661330123098
7563719,2042,2049,2113,2048,1745175661330123098
7564719,2042,2053,2173,2080,1745175661330123098
7565719,2012,2009,2132,2041,1745175661330123098
7566719,2009,2022,2154,2073,1745175661330123098
7567719,2035,2062,2191,2092,1745175661330123098
7568720,2061,2088,2196,2123,1745175661330123098
7569720,2091,2112,2150,2096,1745175661330123098
7570720,2086,2113,2106,2074,1745175661330123098
7571720,2077,2128,2075,2144,1745175661330123098
7572720,2153,2203,2093,2042,1745175661330123098
7573720,2038,2102,1954,2009,1745175661330123098
7574720,2011,2100,1913,2015,1745175661330123098
7575720,2009,2096,1884,2016,1745175661330123098
7576720,2010,2085,1866,2023,1745175661330123098
7577720,2026,2096,1876,2021,1745175661330123098
7578720,2029,2044,1884,2019,1745175661330123098
7579720,2026,2022,1917,2032,1745175661330123098
7580721,2038,1999,1963,2043,1745175661330123098
7581721,2049,1978,2014,2054,1745175661330123098
7582721,2062,1955,2066,2069,1745175661330123098
7583721,2072,1940,2117,2077,1745175661330123098
7584721,2082,1931,2164,2097,1745175661330123098
7585721,2085,1938,2203,2100,1745175661330123098
7586721,2085,1956,2225,2107,1745175661330123098
7587721,2075,1996,2226,2112,1745175661330123098
7588721,2061,2035,2196,2102,1745175661330123098
7589721,2037,2081,2148,2082,1745175661330123098
7590721,2021,2114,2093,2053,1745175661330123098
7591721,2004,2139,2035,2028,1745175661330123098
7592722,1996,2147,1988,2015,1745175661330123098
7593722,1990,2154,1947,2008,1745175661330123098
7594722,1989,2150,1910,2014,1745175661330123098
7595722,1988,2146,1885,2028,1745175661330123098
7596722,1993,2132,1881,2044,1745175661330123098
7597722,1996,2122,1893,2057,1745175661330123098
7598722,2006,2102,1921,2061,1745175661330123098
7599722,2013,2081,1956,2057,1745175661330123098
7600722,2025,2059,2000,2044,1745175661330123098
7601722,2035,2040,2044,2026,1745175661330123098
7602722,2052,2025,2085,2002,1745175661330123098
7603722,2060,2009,2117,1979,1745175661330123098
7604723,2066,2000,2145,1973,1745175661330123098
7605723,2062,2007,2164,1982,1745175661330123098
7606723,2053,2026,2168,2008,1745175661330123098
7607723,2042,2053,2159,2030,1745175661330123098
7608723,2035,2074,2134,2050,1745175661393375489
7609723,2033,2093,2107,2060,1745175661393375489
7610723,2032,2106,2076,2069,1745175661393375489
7611723,2029,2114,2044,2064,1745175661393375489
7612723,2029,2113,2014,2051,1745175661393375489
7613723,2029,2107,1989,2020,1745175661393375489
7614723,2034,2097,1960,1998,1745175661393375489
7615723,2036,2089,1939,1978,1745175661393375489
7616724,2042,2077,1930,1966,1745175661393375489
7617724,2041,2072,1940,1954,1745175661393375489
7618724,2049,2063,1958,1948,1745175661393375489
7619724,2051,2056,1985,1953,1745175661393375489
7620724,2056,2055,2030,1965,1745175661393375489
7621724,2059,2057,2073,1976,1745175661393375489
7622724,2060,2063,2109,1992,1745175661393375489
7623725,2068,2085,2148,2000,1745175661393375489
7624724,2059,2076,2176,2009,1745175661393375489
7625724,2057,2088,2208,2030,1745175661393375489
7626724,2113,2180,2299,2097,1745175661393375489
7627724,2123,2092,2187,2008,1745175661393375489
7628725,2018,2073,2154,2021,1745175661393375489
7629725,2018,2092,2213,2136,1745175661393375489
7630725,2116,2170,2186,2043,1745175661393375489
7631725,2018,2064,2054,2030,1745175661393375489
7632725,2006,2082,2043,2060,1745175661393375489
7633725,2016,2069,2012,2061,1745175661393375489
7634725,2025,2072,1987,2071,1745175661393375489
7635725,2022,2065,1968,2077,1745175661393375489
7636725,2033,2060,1956,2084,1745175661393375489
7637725,2051,2057,1958,2086,1745175661393375489
7638725,2052,2054,1965,2076,1745175661393375489
7639725,2053,2062,1979,2061,1745175661393375489
7640726,2041,2079,1994,2057,1745175661393375489
7641726,2029,2095,2012,2064,1745175661393375489
7642726,2017,2108,2035,2084,1745175661393375489
7643726,2012,2116,2066,2113,1745175661393375489
7644726,2011,2122,2107,2136,1745175661393375489
7645726,2018,2129,2144,2148,1745175661393375489
7646727,2022,2132,2166,2142,1745175661393375489
7647726,2026,2140,2170,2129,1745175661393375489
7648726,2028,2136,2160,2102,1745175661393375489
7649726,2032,2137,2136,2068,1745175661393375489
7650726,2035,2136,2107,2032,1745175661393375489
7651726,2038,2138,2074,2004,1745175661393375489
7652727,2036,2134,2040,1987,1745175661393375489
7653727,2035,2131,2011,1976,1745175661393375489
7654727,2037,2121,1980,1967,1745175661393375489
7655727,2040,2104,1954,1956,1745175661393375489
7656727,2054,2083,1946,1949,1745175661393375489
7657727,2067,2067,1954,1940,1745175661393375489
7658727,2082,2037,1968,1933,1745175661393375489
7659727,2091,2016,1992,1925,1745175661393375489
7660727,2098,1998,2015,1926,1745175661393375489
7661727,2102,1988,2044,1930,1745175661393375489
7662727,2104,1987,2070,1944,1745175661393375489
7663727,2097,1997,2097,1970,1745175661393375489
7664728,2086,2021,2123,2004,1745175661393375489
7665728,2070,2060,2149,2040,1745175661393375489
7666728,2053,2107,2157,2078,1745175661452112036
7667728,2029,2156,2152,2105,1745175661452112036
7668728,2021,2193,2133,2122,1745175661452112036
7669728,2014,2221,2108,2122,1745175661452112036
7670728,2014,2238,2078,2116,1745175661452112036
7671728,2018,2246,2051,2099,1745175661452112036
7672728,2028,2244,2019,2086,1745175661452112036
7673729,2019,2235,1991,2073,1745175661452112036
7674729,2030,2221,1956,2064,1745175661452112036
7675728,2033,2202,1929,2050,1745175661452112036
7676730,2033,2184,1907,2030,1745175661452112036
7677729,2033,2165,1905,2017,1745175661452112036
7678729,2033,2145,1913,2009,1745175661452112036
7679729,2032,2128,1938,2004,1745175661452112036
7680729,2035,2111,1971,2014,1745175661452112036
7681729,2038,2102,2020,2037,1745175661452112036
7682729,2050,2088,2053,2056,1745175661452112036
7683729,2056,2078,2077,2124,1745175661452112036
7684729,2076,2082,2116,2043,1745175661452112036
7685730,2058,2057,2139,2032,1745175661452112036
7686729,2064,2058,2160,2016,1745175661452112036
7687729,2066,2070,2166,2003,1745175661452112036
7688730,2070,2077,2216,2056,1745175661452112036
7689730,2086,2166,2214,2068,1745175661452112036
7690730,2136,2186,2086,1974,1745175661452112036
7691730,2026,2109,2020,1973,1745175661452112036
7692730,2017,2124,1986,1988,1745175661452112036
7693730,2013,2136,1955,1996,1745175661452112036
7694730,2016,2131,1923,2001,1745175661452112036
7695730,2014,2137,1910,2006,1745175661452112036
7696730,2017,2107,1885,1995,1745175661452112036
7697730,2017,2086,1887,1996,1745175661452112036
7698730,2023,2068,1904,1999,1745175661452112036
7699730,2030,2053,1930,2018,1745175661452112036
7700731,2044,2032,1966,2043,1745175661452112036
7701731,2058,2011,2005,2072,1745175661452112036
7702731,2073,1990,2044,2084,1745175661452112036
7703731,2083,1968,2080,2092,1745175661452112036
7704731,2094,1950,2120,2078,1745175661452112036
7705731,2101,1941,2152,2056,1745175661452112036
7706731,2101,1944,2175,2023,1745175661452112036
7707731,2096,1962,2181,1992,1745175661452112036
7708731,2085,1981,2163,1965,1745175661452112036
7709731,2073,2011,2130,1959,1745175661452112036
7710731,2059,2049,2085,1965,1745175661452112036
7711731,2050,2083,2037,1987,1745175661452112036
7712732,2038,2109,2000,2011,1745175661452112036
7713732,2033,2129,1960,2034,1745175661452112036
7714732,2034,2144,1923,2053,1745175661452112036
7715732,2019,2151,1886,2065,1745175661452112036
7716732,2011,2154,1866,2069,1745175661452112036
7717732,2005,2154,1858,2076,1745175661452112036
7718732,1997,2146,1865,2076,1745175661452112036
7719732,2000,2132,1888,2077,1745175661452112036
7720732,2004,2115,1922,2072,1745175661452112036
7721732,2015,2093,1960,2068,1745175661452112036
7722732,2027,2075,1998,2060,1745175661452112036
7723732,2037,2058,2036,2059,1745175661452112036
7724733,2043,2052,2074,2066,1745175661505310508
7725733,2050,2051,2102,2079,1745175661505310508
7726733,2051,2058,2115,2096,1745175661505310508
7727733,2052,2068,2117,2109,1745175661505310508
7728733,2054,2081,2102,2122,1745175661505310508
7729733,2051,2092,2080,2130,1745175661505310508
7730733,2050,2105,2053,2141,1745175661505310508
7731733,2058,2120,2033,2122,1745175661505310508
7732733,2048,2114,1998,2098,1745175661505310508
7733733,2042,2109,1971,2082,1745175661505310508
7734733,2042,2101,1940,2072,1745175661505310508
7735733,2044,2089,1917,2054,1745175661505310508
7736734,2051,2075,1905,2039,1745175661505310508
7737734,2059,2064,1909,2022,1745175661505310508
7738734,2058,2049,1921,2014,1745175661505310508
7739734,2061,2034,1942,2014,1745175661505310508
7740735,2081,2032,1970,2003,1745175661505310508
7741734,2073,2028,1999,1997,1745175661505310508
7742734,2078,2040,2037,2011,1745175661505310508
7743734,2080,2033,2044,1997,1745175661505310508
7744734,2076,2035,2070,2009,1745175661505310508
7745734,2075,2041,2093,2013,1745175661505310508
7746734,2083,2040,2108,2015,1745175661505310508
7747734,2088,2042,2116,2012,1745175661505310508
7748735,2162,2131,2195,2089,1745175661505310508
7749735,2170,2048,2081,1988,1745175661505310508
7750735,2068,2027,2134,2085,1745175661505310508
7751735,2146,2120,2088,2001,1745175661505310508
7752735,2036,2033,1974,1993,1745175661505310508
7753735,2024,2048,1953,2006,1745175661505310508
7754735,2031,2078,1938,2017,1745175661505310508
7755735,2040,2048,1900,2009,1745175661505310508
7756735,2102,2126,1969,2089,1745175661505310508
7757735,2126,2025,1889,1996,1745175661505310508
7758735,2036,1989,1897,2011,1745175661505310508
7759735,2044,1989,1936,2033,1745175661505310508
7760736,2053,2001,1970,2050,1745175661505310508
7761736,2053,2021,2002,2053,1745175661505310508
7762736,2043,2044,2023,2050,1745175661505310508
7763736,2035,2058,2048,2043,1745175661505310508
7764736,2030,2068,2072,2035,1745175661505310508
7765736,2032,2069,2097,2034,1745175661505310508
7766736,2033,2072,2113,2034,1745175661505310508
7767736,2036,2080,2117,2050,1745175661505310508
7768736,2036,2080,2107,2061,1745175661505310508
7769736,2042,2089,2090,2084,1745175661505310508
7770736,2042,2099,2068,2099,1745175661505310508
7771736,2048,2106,2038,2113,1745175661505310508
7772737,2052,2108,2012,2117,1745175661505310508
7773737,2056,2107,1984,2114,1745175661505310508
7774737,2060,2104,1953,2106,1745175661505310508
7775737,2060,2096,1922,2094,1745175661505310508
7776737,2060,2088,1901,2086,1745175661505310508
7777737,2060,2083,1891,2085,1745175661505310508
7778737,2062,2070,1901,2090,1745175661505310508
7779737,2067,2058,1921,2100,1745175661505310508
7780737,2075,2038,1953,2101,1745175661505310508
7781737,2084,2022,1992,2106,1745175661505310508
7782737,2087,2008,2033,2106,1745175661564323407
7783737,2088,2003,2068,2106,1745175661564323407
7784738,2084,2001,2104,2099,1745175661564323407
7785738,2080,2009,2128,2084,1745175661564323407
7786738,2076,2018,2144,2064,1745175661564323407
7787738,2074,2030,2144,2050,1745175661564323407
7788738,2072,2039,2137,2042,1745175661564323407
7789738,2067,2057,2116,2042,1745175661564323407
7790738,2063,2070,2088,2051,1745175661564323407
7791738,2060,2088,2053,2058,1745175661564323407
7792738,2060,2094,2017,2061,1745175661564323407
7793738,2059,2098,1981,2061,1745175661564323407
7794738,2056,2092,1953,2052,1745175661564323407
7795738,2054,2084,1924,2045,1745175661564323407
7796739,2049,2080,1907,2034,1745175661564323407
7797739,2048,2073,1902,2029,1745175661564323407
7798739,2043,2072,1919,2025,1745175661564323407
7799740,2052,2051,1933,2024,1745175661564323407
7800739,2050,2035,1965,2038,1745175661564323407
7801739,2068,2108,2075,2116,1745175661564323407
7802739,2124,2049,2017,2033,1745175661564323407
7803739,2021,1986,2036,2052,1745175661564323407
7804739,2022,1990,2081,2068,1745175661564323407
7805739,2032,1994,2116,2061,1745175661564323407
7806739,2043,1996,2141,2061,1745175661564323407
7807739,2056,2005,2154,2052,1745175661564323407
7808740,2071,2002,2138,2027,1745175661564323407
7809740,2077,1998,2115,1988,1745175661564323407
7810740,2070,2003,2094,1968,1745175661564323407
7811740,2081,2004,2076,1961,1745175661564323407
7812740,2090,2002,2057,1962,1745175661564323407
7813740,2100,1994,2041,1975,1745175661564323407
7814740,2110,1984,2025,1981,1745175661564323407
7815740,2121,1972,2009,1992,1745175661564323407
7816740,2125,1964,2005,2000,1745175661564323407
7817740,2128,1966,2011,2030,1745175661564323407
7818740,2119,1965,2022,2063,1745175661564323407
7819740,2104,1983,2035,2094,1745175661564323407
7820741,2084,2005,2048,2129,1745175661564323407
7821741,2062,2034,2051,2161,1745175661564323407
7822741,2040,2057,2054,2193,1745175661564323407
7823741,2026,2073,2067,2208,1745175661564323407
7824741,2022,2078,2092,2214,1745175661564323407
7825741,2020,2080,2119,2205,1745175661564323407
7826741,2025,2076,2136,2185,1745175661564323407
7827741,2025,2078,2140,2147,1745175661564323407
7828741,2033,2074,2126,2109,1745175661564323407
7829741,2023,2073,2102,2075,1745175661564323407
7830741,2025,2078,2070,2053,1745175661564323407
7831741,2027,2084,2030,2042,1745175661564323407
7832742,2019,2080,2001,2038,1745175661564323407
7833742,2027,2088,1981,2048,1745175661564323407
7834742,2029,2070,1946,2030,1745175661564323407
7835742,2029,2050,1921,2018,1745175661564323407
7836742,2036,2025,1910,2007,1745175661564323407
7837744,2050,2003,1909,1995,1745175661564323407
7838742,2053,1969,1929,1994,1745175661564323407
7839742,2058,1946,1954,1981,1745175661564323407
7840742,2064,1925,1988,1987,1745175661624262130
7841742,2064,1917,2023,2003,1745175661624262130
7842742,2066,1917,2074,2034,1745175661624262130
7843742,2064,1925,2122,2067,1745175661624262130
7844743,2064,1938,2157,2094,1745175661624262130
7845743,2059,1953,2192,2115,1745175661624262130
7846743,2054,1970,2210,2124,1745175661624262130
7847743,2054,1985,2214,2125,1745175661624262130
7848743,2043,2000,2202,2115,1745175661624262130
7849743,2041,2016,2176,2104,1745175661624262130
7850743,2033,2035,2143,2085,1745175661624262130
7851743,2027,2057,2102,2071,1745175661624262130
7852743,2012,2082,2058,2062,1745175661624262130
7853743,2000,2101,2011,2054,1745175661624262130
7854743,1990,2113,1968,2042,1745175661624262130
7855743,1985,2115,1926,2037,1745175661624262130
7856744,1985,2108,1904,2051,1745175661624262130
7857744,1990,2105,1892,2051,1745175661624262130
7858744,1986,2080,1905,2064,1745175661624262130
7859744,2005,2097,1948,2096,1745175661624262130
7860744,2002,2118,2052,2137,1745175661624262130
7861744,2065,2058,2005,2040,1745175661624262130
7862744,1969,1985,2030,2035,1745175661624262130
7863744,1973,1980,2076,2035,1745175661624262130
7864744,1982,1985,2118,2036,1745175661624262130
7865744,1992,1986,2154,2032,1745175661624262130
7866744,2001,2029,2187,2041,1745175661624262130
7867744,2016,2000,2178,2033,1745175661624262130
7868745,2018,1997,2170,2034,1745175661624262130
7869745,2028,1997,2156,2026,1745175661624262130
7870745,2041,1993,2133,2022,1745175661624262130
7871745,2049,1984,2108,2015,1745175661624262130
7872745,2058,1979,2078,2006,1745175661624262130
7873745,2057,1978,2052,2000,1745175661624262130
7874745,2053,1981,2016,1996,1745175661624262130
7875745,2044,1987,1981,1998,1745175661624262130
7876745,2034,1997,1953,2012,1745175661624262130
7877745,2023,2010,1939,2029,1745175661624262130
7878745,2021,2009,1939,2053,1745175661624262130
7879745,2024,2013,1961,2074,1745175661624262130
7880746,2029,2017,1989,2093,1745175661624262130
7881746,2035,2021,2026,2107,1745175661624262130
7882746,2038,2026,2059,2116,1745175661624262130
7883746,2044,2028,2088,2119,1745175661624262130
7884746,2048,2032,2115,2113,1745175661624262130
7885746,2052,2034,2142,2108,1745175661624262130
7886746,2054,2037,2159,2098,1745175661624262130
7887746,2057,2043,2163,2088,1745175661624262130
7888746,2059,2042,2154,2074,1745175661624262130
7889746,2061,2044,2136,2069,1745175661624262130
7890746,2066,2035,2113,2063,1745175661624262130
7891746,2072,2030,2090,2056,1745175661624262130
7892747,2078,2018,2064,2041,1745175661624262130
7893747,2082,2005,2040,2010,1745175661624262130
7894747,2096,1979,2018,1975,1745175661624262130
7895747,2109,1952,2004,1939,1745175661624262130
7896747,2125,1929,1997,1915,1745175661624262130
7897747,2140,1917,2002,1910,1745175661624262130
7898747,2137,1918,2013,1924,1745175661681033955
7899747,2132,1936,2032,1955,1745175661681033955
7900747,2119,1970,2053,2002,1745175661681033955
7901747,2101,2010,2069,2053,1745175661681033955
7902747,2077,2053,2072,2100,1745175661681033955
7903747,2053,2081,2068,2142,1745175661681033955
7904748,2028,2104,2069,2173,1745175661681033955
7905748,2012,2119,2073,2191,1745175661681033955
7906748,1998,2130,2070,2186,1745175661681033955
7907748,1990,2137,2054,2154,1745175661681033955
7908748,1991,2132,2034,2107,1745175661681033955
7909748,1995,2129,2010,2059,1745175661681033955
7910748,2004,2117,1988,2026,1745175661681033955
7911748,2011,2105,1967,2004,1745175661681033955
7912748,2021,2089,1950,1995,1745175661681033955
7913748,2029,2081,1935,2000,1745175661681033955
7914748,2037,2077,1915,2020,1745175661681033955
7915748,2037,2092,1900,2053,1745175661681033955
7916749,2041,2081,1886,2083,1745175661681033955
7917749,2060,2091,1859,2043,1745175661681033955
7918749,1993,2052,1875,2051,1745175661681033955
7919749,2011,2088,1940,2086,1745175661681033955
7920749,2035,2173,2041,2150,1745175661681033955
7921749,2090,2087,1984,2059,1745175661681033955
7922749,1984,2059,2009,2066,1745175661681033955
7923749,1984,2061,2052,2076,1745175661681033955
7924749,1987,2064,2089,2080,1745175661681033955
7925749,1994,2065,2118,2074,1745175661681033955
7926749,1999,2082,2145,2064,1745175661681033955
7927749,2017,2059,2133,2048,1745175661681033955
7928750,2014,2049,2121,2040,1745175661681033955
7929750,2022,2044,2099,2035,1745175661681033955
7930750,2030,2038,2074,2027,1745175661681033955
7931750,2034,2038,2048,2027,1745175661681033955
7932750,2043,2036,2026,2030,1745175661681033955
7933750,2050,2040,2002,2028,1745175661681033955
7934750,2056,2035,1978,2025,1745175661681033955
7935750,2065,2032,1969,2022,1745175661681033955
7936750,2087,2023,1953,2008,1745175661681033955
7937750,2101,2008,1954,1992,1745175661681033955
7938750,2106,1966,1971,1983,1745175661681033955
7939750,2117,1954,2003,1982,1745175661681033955
7940751,2122,1950,2048,1987,1745175661681033955
7941751,2116,1961,2085,1995,1745175661681033955
7942751,2108,1975,2120,2012,1745175661681033955
7943751,2096,1995,2151,2027,1745175661681033955
7944751,2083,2019,2179,2040,1745175661681033955
7945751,2072,2049,2208,2050,1745175661681033955
7946751,2060,2079,2218,2062,1745175661681033955
7947751,2051,2106,2216,2083,1745175661681033955
7948751,2042,2123,2193,2120,1745175661681033955
7949751,2042,2125,2161,2156,1745175661681033955
7950751,2048,2120,2127,2182,1745175661681033955
7951751,2054,2104,2093,2194,1745175661681033955
7952752,2058,2092,2061,2192,1745175661681033955
7953752,2058,2086,2026,2172,1745175661681033955
7954752,2044,2084,1981,2136,1745175661681033955
7955752,2036,2086,1936,2094,1745175661681033955
7956752,2027,2092,1908,2051,1745175661739072019
7957752,2020,2102,1890,2012,1745175661739072019
7958752,2013,2112,1890,1988,1745175661739072019
7959752,2004,2118,1896,1970,1745175661739072019
7960752,2003,2114,1920,1960,1745175661739072019
7961752,2003,2108,1957,1961,1745175661739072019
7962752,2009,2096,2000,1977,1745175661739072019
7963752,2013,2088,2048,2008,1745175661739072019
7964753,2024,2079,2088,2048,1745175661739072019
7965753,2027,2067,2125,2080,1745175661739072019
7966753,2036,2053,2149,2106,1745175661739072019
7967753,2044,2036,2162,2107,1745175661739072019
7968753,2057,2017,2156,2089,1745175661739072019
7969753,2066,2000,2142,2041,1745175661739072019
7970753,2074,1992,2117,2001,1745175661739072019
7971753,2077,1994,2082,1976,1745175661739072019
7972753,2080,2012,2043,1966,1745175661739072019
7973753,2074,2036,2006,1979,1745175661739072019
7974754,2077,2071,1965,1976,1745175661739072019
7975753,2059,2086,1926,1977,1745175661739072019
7976754,2055,2102,1920,1985,1745175661739072019
7977754,2136,2178,1973,2038,1745175661739072019
7978754,2070,2068,1894,1942,1745175661739072019
7979754,2020,2021,1922,1943,1745175661739072019
7980754,2026,2010,1966,1950,1745175661739072019
7981754,2035,2000,2014,1971,1745175661739072019
7982754,2038,2005,2053,2001,1745175661739072019
7983754,2058,2029,2091,2050,1745175661739072019
7984754,2022,2033,2106,2080,1745175661739072019
7985754,2012,2048,2136,2108,1745175661739072019
7986754,2011,2060,2155,2126,1745175661739072019
7987754,2017,2076,2166,2132,1745175661739072019
7988755,2024,2077,2162,2128,1745175661739072019
7989755,2034,2080,2154,2107,1745175661739072019
7990755,2040,2082,2136,2075,1745175661739072019
7991755,2043,2075,2106,2037,1745175661739072019
7992755,2040,2064,2072,2001,1745175661739072019
7993755,2040,2052,2032,1972,1745175661739072019
7994755,2039,2034,1995,1956,1745175661739072019
7995755,2040,2026,1957,1963,1745175661739072019
7996755,2038,2025,1931,2000,1745175661739072019
7997755,2033,2040,1916,2040,1745175661739072019
7998755,2022,2050,1921,2082,1745175661739072019
7999755,2014,2069,1940,2117,1745175661739072019
8000756,2008,2086,1972,2137,1745175661739072019
8001756,2003,2105,2012,2138,1745175661739072019
8002756,2002,2117,2056,2120,1745175661739072019
8003756,2003,2122,2089,2092,1745175661739072019
8004756,2010,2116,2122,2068,1745175661739072019
8005756,2017,2109,2153,2048,1745175661739072019
8006756,2030,2096,2177,2033,1745175661739072019
8007756,2036,2093,2187,2025,1745175661739072019
8008756,2041,2081,2184,2024,1745175661739072019
8009756,2043,2074,2171,2019,1745175661739072019
8010756,2048,2067,2148,2021,1745175661739072019
8011756,2051,2060,2124,2030,1745175661739072019
8012757,2050,2057,2096,2048,1745175661739072019
8013757,2052,2048,2065,2068,1745175661739072019
8014757,2053,2038,2025,2091,1745175661802904404
8015757,2057,2027,1986,2115,1745175661802904404
8016758,2059,2017,1951,2133,1745175661802904404
8017757,2063,2006,1930,2147,1745175661802904404
8018759,2059,2010,1929,2155,1745175661802904404
8019757,2058,2002,1945,2154,1745175661802904404
8020757,2052,1997,1984,2139,1745175661802904404
8021757,2060,1981,2032,2113,1745175661802904404
8022757,2070,1968,2088,2074,1745175661802904404
8023757,2089,1952,2139,2031,1745175661802904404
8024758,2105,1941,2188,1994,1745175661802904404
8025758,2115,1945,2226,1973,1745175661802904404
8026758,2122,1962,2251,1977,1745175661802904404
8027758,2118,2000,2254,1992,1745175661802904404
8028758,2104,2042,2241,2004,1745175661802904404
8029758,2083,2082,2208,2011,1745175661802904404
8030758,2063,2115,2170,2006,1745175661802904404
8031758,2037,2140,2131,1990,1745175661802904404
8032758,2025,2169,2098,1983,1745175661802904404
8033760,2013,2169,2069,1980,1745175661802904404
8034758,2013,2187,2028,1941,1745175661802904404
8035758,2017,2165,2029,2002,1745175661802904404
8036759,2084,2144,1932,1914,1745175661802904404
8037759,1993,2099,1910,1941,1745175661802904404
8038759,2000,2086,1925,1980,1745175661802904404
8039759,2018,2069,1939,2003,1745175661802904404
8040759,2017,2042,1962,2020,1745175661802904404
8041759,2041,2040,2000,2037,1745175661802904404
8042759,2024,2017,2025,2048,1745175661802904404
8043759,2030,2009,2061,2060,1745175661802904404
8044759,2038,2006,2094,2065,1745175661802904404
8045759,2042,2018,2122,2065,1745175661802904404
8046759,2045,2040,2140,2056,1745175661802904404
8047759,2040,2081,2138,2050,1745175661802904404
8048760,2034,2104,2113,2051,1745175661802904404
8049760,2022,2136,2077,2058,1745175661802904404
8050760,2014,2156,2040,2066,1745175661802904404
8051760,2008,2162,2005,2062,1745175661802904404
8052760,2010,2158,1978,2049,1745175661802904404
8053760,2017,2140,1955,2034,1745175661802904404
8054760,2028,2110,1935,2024,1745175661802904404
8055760,2042,2074,1920,2011,1745175661802904404
8056760,2058,2036,1913,2007,1745175661802904404
8057760,2075,2014,1928,2013,1745175661802904404
8058760,2084,1988,1958,2028,1745175661802904404
8059760,2096,1977,2005,2053,1745175661802904404
8060761,2106,1981,2068,2065,1745175661802904404
8061761,2109,1986,2121,2067,1745175661802904404
8062761,2108,1988,2166,2050,1745175661802904404
8063761,2105,1987,2202,2018,1745175661802904404
8064761,2104,1985,2234,1988,1745175661802904404
8065761,2105,1993,2260,1974,1745175661802904404
8066761,2104,2010,2273,1970,1745175661802904404
8067761,2092,2048,2258,1968,1745175661802904404
8068761,2072,2085,2216,1967,1745175661802904404
8069761,2044,2128,2154,1970,1745175661802904404
8070761,2024,2157,2092,1980,1745175661802904404
8071761,2009,2173,2035,1984,1745175661802904404
8072762,2005,2177,1992,1984,1745175661856425270
8073762,2004,2173,1955,1937,1745175661856425270
8074762,2007,2158,1912,1899,1745175661856425270
8075762,2010,2132,1870,1872,1745175661856425270
8076762,2018,2094,1838,1866,1745175661856425270
8077762,2027,2053,1832,1873,1745175661856425270
8078762,2043,2003,1851,1901,1745175661856425270
8079762,2061,1965,1891,1938,1745175661856425270
8080762,2078,1938,1945,1978,1745175661856425270
8081762,2081,1930,2003,2001,1745175661856425270
8082762,2077,1938,2057,2002,1745175661856425270
8083762,2066,1960,2097,1981,1745175661856425270
8084763,2055,1989,2129,1955,1745175661856425270
8085763,2035,2026,2152,1936,1745175661856425270
8086763,2021,2065,2163,1929,1745175661856425270
8087763,2011,2098,2156,1938,1745175661856425270
8088763,2005,2121,2132,1960,1745175661856425270
8089763,2000,2141,2101,1983,1745175661856425270
8090763,1996,2157,2070,2033,1745175661856425270
8091763,1993,2168,2033,2076,1745175661856425270
8092763,1987,2162,1989,2130,1745175661856425270
8093764,1995,2163,1979,2180,1745175661856425270
8094763,2028,2125,1954,2212,1745175661856425270
8095763,2010,2083,1945,2228,1745175661856425270
8096764,2036,2039,1954,2231,1745175661856425270
8097764,2060,2001,1966,2208,1745175661856425270
8098764,2078,1961,1992,2202,1745175661856425270
8099764,2124,1982,2105,2228,1745175661856425270
8100764,2097,1934,2022,2086,1745175661856425270
8101764,2056,1923,2033,2052,1745175661856425270
8102764,2040,1925,2040,2019,1745175661856425270
8103764,2028,1933,2042,1994,1745175661856425270
8104764,2018,1934,2051,1986,1745175661856425270
8105764,2030,1948,2065,1961,1745175661856425270
8106764,2017,1939,2078,1965,1745175661856425270
8107764,2025,1952,2086,1980,1745175661856425270
8108765,2027,1949,2084,2000,1745175661856425270
8109765,2032,1952,2072,2029,1745175661856425270
8110765,2033,1952,2059,2066,1745175661856425270
8111765,2037,1952,2041,2107,1745175661856425270
8112765,2041,1952,2027,2139,1745175661856425270
8113765,2043,1951,2009,2162,1745175661856425270
8114765,2050,1941,1991,2161,1745175661856425270
8115765,2059,1918,1974,2140,1745175661856425270
8116765,2075,1885,1973,2105,1745175661856425270
8117765,2092,1872,1987,2070,1745175661856425270
8118765,2104,1859,2013,2044,1745175661856425270
8119765,2112,1873,2036,2030,1745175661856425270
8120766,2117,1891,2072,2030,1745175661856425270
8121766,2116,1918,2106,2048,1745175661856425270
8122766,2105,1950,2139,2076,1745175661856425270
8123766,2080,1994,2163,2109,1745175661856425270
8124766,2049,2033,2181,2143,1745175661856425270
8125766,2018,2074,2202,2180,1745175661856425270
8126766,1996,2103,2222,2217,1745175661856425270
8127766,1988,2126,2235,2236,1745175661856425270
8128766,1996,2130,2233,2233,1745175661856425270
8129766,2011,2126,2221,2192,1745175661856425270
8130766,2033,2109,2192,2126,1745175661976016208
8131766,2061,2082,2157,2035,1745175661976016208
8132767,2084,2045,2118,1935,1745175661976016208
8133767,2104,2005,2082,1843,1745175661976016208
8134767,2112,1974,2040,1781,1745175661976016208
8135767,2113,1950,1998,1760,1745175661976016208
8136767,2103,1946,1957,1796,1745175661976016208
8137767,2094,1955,1932,1886,1745175661976016208
8138767,2078,1968,1932,2006,1745175661976016208
8139767,2068,1986,1957,2133,1745175661976016208
8140767,2065,2018,2011,2240,1745175661976016208
8141767,2066,2040,2056,2291,1745175661976016208
8142767,2051,2051,2101,2316,1745175661976016208
8143767,2042,2057,2141,2322,1745175661976016208
8144768,2038,2049,2181,2301,1745175661976016208
8145768,2032,2048,2225,2261,1745175661976016208
8146768,2033,2044,2262,2213,1745175661976016208
8147768,2034,2043,2284,2155,1745175661976016208
8148768,2038,2028,2281,2103,1745175661976016208
8149769,2059,2017,2264,2035,1745175661976016208
8150768,2062,1987,2235,2000,1745175661976016208
8151768,2077,1973,2212,2010,1745175661976016208
8152768,2093,1953,2161,2072,1745175661976016208
8153768,2195,2025,2131,2043,1745175661976016208
8154768,2091,1938,2042,2065,1745175661976016208
8155768,2082,1957,1982,2086,1745175661976016208
8156769,2067,1990,1917,2091,1745175661976016208
8157769,2043,2032,1865,2072,1745175661976016208
8158769,2016,2066,1818,2054,1745175661976016208
8159769,1989,2096,1788,2028,1745175661976016208
8160769,1944,2195,1839,2032,1745175661976016208
8161769,1926,2107,1774,2020,1745175661976016208
8162769,1918,2085,1820,2059,1745175661976016208
8163769,1938,2058,1888,2112,1745175661976016208
8164769,1973,2006,1969,2177,1745175661976016208
8165769,2010,1970,2054,2241,1745175661976016208
8166769,2043,1958,2130,2289,1745175661976016208
8167769,2067,1973,2181,2300,1745175661976016208
8168770,2084,1991,2209,2281,1745175661976016208
8169770,2096,2026,2218,2223,1745175661976016208
8170770,2106,2060,2213,2152,1745175661976016208
8171770,2120,2078,2209,2056,1745175661976016208
8172770,2133,2081,2198,1950,1745175661976016208
8173770,2148,2067,2190,1857,1745175661976016208
8174770,2161,2037,2176,1796,1745175661976016208
8175770,2185,1989,2158,1765,1745175661976016208
8176770,2210,1931,2154,1753,1745175661976016208
8177772,2235,1879,2155,1756,1745175661976016208
8178770,2241,1843,2155,1778,1745175661976016208
8179770,2222,1832,2138,1812,1745175661976016208
8180771,2181,1836,2108,1859,1745175661976016208
8181771,2132,1865,2081,1925,1745175661976016208
8182771,2085,1907,2072,2000,1745175661976016208
8183771,2050,1956,2059,2064,1745175661976016208
8184771,2020,2006,2042,2118,1745175661976016208
8185771,1987,2074,2051,2170,1745175661976016208
8186771,1947,2157,2038,2233,1745175661976016208
8187771,1906,2244,2018,2295,1745175661976016208
8188771,1873,2318,1985,2342,1745175661985263468
8189771,1859,2357,1961,2356,1745175661985263468
8190771,1865,2363,1942,2332,1745175661985263468
8191771,1886,2334,1937,2281,1745175661985263468
8192772,1914,2300,1944,2218,1745175661985263468
8193772,1944,2272,1960,2154,1745175661985263468
8194772,1967,2245,1979,2077,1745175661985263468
8195772,1996,2221,1994,2011,1745175661985263468
8196772,2024,2188,2014,1960,1745175661985263468
8197772,2058,2148,2048,1939,1745175661985263468
8198772,2094,2092,2102,1934,1745175661985263468
8199772,2141,2030,2165,1955,1745175661985263468
8200772,2193,1984,2234,2010,1745175661985263468
8201772,2230,1972,2297,2106,1745175661985263468
8202772,2248,1996,2334,2229,1745175661985263468
8203772,2228,2052,2339,2341,1745175661985263468
8204773,2214,2136,2274,2347,1745175661985263468
8205773,2074,2149,2203,2375,1745175661985263468
8206773,2021,2224,2152,2380,1745175661985263468
8207773,1992,2261,2118,2341,1745175661985263468
8208773,1987,2238,2076,2250,1745175661985263468
8209773,2011,2194,2059,2166,1745175661985263468
8210773,2059,2161,2043,2089,1745175661985263468
8211773,2077,2163,2026,2064,1745175661985263468
8212773,2086,2198,1998,2053,1745175661985263468
8213773,2072,2248,1962,2043,1745175661985263468
8214773,2038,2293,1920,2041,1745175661985263468
8215773,2002,2316,1879,2035,1745175661985263468
8216774,1986,2318,1858,2025,1745175661985263468
8217774,1985,2312,1867,2026,1745175661985263468
8218774,1998,2276,1900,2035,1745175661985263468
8219774,2025,2241,1949,2037,1745175661985263468
8220774,2069,2203,1998,2026,1745175661985263468
8221774,2105,2182,2037,2001,1745175661985263468
8222774,2125,2186,2060,1956,1745175661985263468
8223774,2123,2216,2064,1901,1745175661985263468
8224774,2105,2258,2062,1838,1745175661985263468
8225774,2067,2324,2056,1778,1745175661985263468
8226774,2014,2397,2039,1741,1745175661985263468
8227774,1968,2470,2022,1731,1745175661985263468
8228775,1932,2500,2012,1753,1745175661985263468
8229775,1915,2509,2010,1808,1745175661985263468
8230775,1910,2503,2012,1879,1745175661985263468
8231775,1912,2480,2005,1946,1745175661985263468
8232775,1922,2432,1986,1993,1745175661985263468
8233775,1937,2362,1960,2017,1745175661985263468
8234775,1952,2278,1937,2021,1745175661985263468
8235775,1964,2196,1896,2019,1745175661985263468
8236775,1972,2132,1872,2016,1745175661985263468
8237775,1984,2082,1880,2029,1745175661985263468
8238775,2023,2032,1933,2044,1745175661985263468
8239775,2099,1960,2021,2032,1745175661985263468
8240776,2152,1837,2124,2015,1745175661985263468
8241776,2208,1730,2242,1996,1745175661985263468
8242776,2254,1663,2341,1998,1745175661985263468
8243776,2269,1617,2358,1937,1745175661985263468
8244776,2241,1656,2381,1924,1745175661985263468
8245776,2222,1773,2380,1932,1745175661985263468
8246776,2174,1949,2341,1957,1745175662035599206
8247776,2098,2145,2273,1980,1745175662035599206
8248776,2008,2322,2195,1996,1745175662035599206
8249776,1932,2462,2131,2011,1745175662035599206
8250776,1888,2559,2086,2027,1745175662035599206
8251776,1880,2608,2062,2028,1745175662035599206
8252777,1893,2644,2053,2001,1745175662035599206
8253777,1915,2669,2052,1964,1745175662035599206
8254777,1938,2681,2030,1940,1745175662035599206
8255777,1960,2671,1992,1922,1745175662035599206
8256777,1986,2631,1961,1896,1745175662035599206
8257777,2013,2579,1954,1875,1745175662035599206
8258777,2038,2513,1977,1869,1745175662035599206
8259777,2066,2417,2022,1869,1745175662035599206
8260777,2093,2301,2086,1854,1745175662035599206
8261777,2125,2168,2157,1828,1745175662035599206
8262777,2163,2041,2220,1808,1745175662035599206
8263777,2201,1939,2273,1801,1745175662035599206
8264778,2218,1883,2309,1800,1745175662035599206
8265778,2202,1875,2328,1814,1745175662035599206
8266778,2153,1922,2278,1858,1745175662035599206
8267778,2077,2019,2198,1925,1745175662035599206
8268778,2013,2147,2134,1974,1745175662035599206
8269778,1981,2269,2078,2012,1745175662035599206
8270778,1980,2282,1998,2015,1745175662035599206
8271778,1993,2328,2041,2027,1745175662035599206
8272778,2076,2208,1929,1897,1745175662035599206
8273778,1984,2140,1923,1982,1745175662035599206
8274778,2067,2218,2002,1976,1745175662035599206
8275778,1956,2114,1908,2037,1745175662035599206
8276779,1925,2115,1917,2118,1745175662035599206
8277779,1925,2085,1910,2222,1745175662035599206
8278779,1931,2043,1907,2193,1745175662035599206
8279779,1923,1963,1858,2155,1745175662035599206
8280779,1949,1872,1853,2091,1745175662035599206
8281779,1985,1790,1875,1998,1745175662035599206
8282779,2015,1744,1910,1934,1745175662035599206
8283779,2020,1744,1933,1937,1745175662035599206
8284779,1998,1791,1938,2028,1745175662035599206
8285779,1953,1882,1939,2189,1745175662035599206
8286779,1900,1986,1934,2379,1745175662035599206
8287779,1862,2080,1986,2545,1745175662035599206
8288780,1851,2096,1937,2598,1745175662035599206
8289780,1857,2076,1965,2594,1745175662035599206
8290780,1905,2020,2013,2530,1745175662035599206
8291780,1964,1953,2073,2424,1745175662035599206
8292780,2027,1882,2122,2314,1745175662035599206
8293780,2080,1819,2163,2216,1745175662035599206
8294780,2116,1771,2185,2146,1745175662035599206
8295780,2127,1732,2188,2095,1745175662035599206
8296780,2121,1693,2158,2077,1745175662035599206
8297780,2107,1652,2121,2092,1745175662035599206
8298780,2099,1597,2091,2128,1745175662035599206
8299780,2117,1545,2083,2165,1745175662035599206
8300781,2140,1510,2081,2201,1745175662035599206
8301781,2153,1490,2073,2235,1745175662035599206
8302781,2141,1480,2049,2232,1745175662035599206
8303781,2121,1451,2025,2165,1745175662035599206
8304781,2094,1406,2035,2059,1745175662090145114
8305781,2081,1374,2069,1983,1745175662090145114
8306781,2083,1373,2116,1949,1745175662090145114
8307781,2067,1430,2150,1976,1745175662090145114
8308781,2037,1549,2158,2069,1745175662090145114
8309781,1989,1727,2121,2200,1745175662090145114
8310781,1931,1907,2044,2313,1745175662090145114
8311781,1877,2043,1948,2377,1745175662090145114
8312782,1843,2123,1859,2386,1745175662090145114
8313782,1845,2134,1796,2351,1745175662090145114
8314782,1881,2085,1762,2288,1745175662090145114
8315782,1938,1997,1752,2231,1745175662090145114
8316782,1990,1915,1743,2210,1745175662090145114
8317782,2031,1853,1741,2209,1745175662090145114
8318782,2060,1812,1742,2208,1745175662090145114
8319782,2062,1789,1752,2191,1745175662090145114
8320782,2032,1795,1760,2178,1745175662090145114
8321782,1977,1820,1764,2160,1745175662090145114
8322782,1916,1830,1769,2128,1745175662090145114
8323782,1865,1805,1795,2060,1745175662090145114
8324783,1834,1757,1851,1979,1745175662090145114
8325783,1820,1702,1931,1913,1745175662090145114
8326783,1817,1656,2018,1883,1745175662090145114
8327783,1843,1622,2108,1869,1745175662090145114
8328783,1883,1603,2178,1867,1745175662090145114
8329784,1930,1609,2237,1874,1745175662090145114
8330783,1953,1608,2260,1897,1745175662090145114
8331783,1959,1634,2276,1948,1745175662090145114
8332783,2003,1733,2359,1984,1745175662090145114
8333783,1939,1687,2246,1984,1745175662090145114
8334783,1915,1732,2205,2004,1745175662090145114
8335783,1906,1763,2134,2017,1745175662090145114
8336784,1907,1761,2070,2032,1745175662090145114
8337784,1932,1734,2003,1994,1745175662090145114
8338784,1950,1709,1966,2004,1745175662090145114
8339784,1969,1718,1958,2042,1745175662090145114
8340784,1972,1745,1965,2101,1745175662090145114
8341784,1964,1782,1992,2178,1745175662090145114
8342785,1942,1851,2032,2280,1745175662090145114
8343784,1909,1932,2076,2369,1745175662090145114
8344784,1873,2001,2120,2392,1745175662090145114
8345784,1860,2033,2170,2344,1745175662090145114
8346784,1859,2010,2200,2225,1745175662090145114
8347784,1886,1958,2204,2083,1745175662090145114
8348785,1926,1892,2192,1953,1745175662090145114
8349785,1970,1839,2157,1861,1745175662090145114
8350785,1991,1801,2100,1828,1745175662090145114
8351786,2008,1766,2028,1889,1745175662090145114
8352785,1987,1749,1957,2060,1745175662090145114
8353785,1959,1741,1899,2283,1745175662090145114
8354785,1930,1723,1851,2465,1745175662090145114
8355785,1906,1691,1811,2556,1745175662090145114
8356785,1893,1638,1799,2543,1745175662090145114
8357785,1913,1568,1824,2464,1745175662090145114
8358785,1973,1494,1892,2394,1745175662090145114
8359785,2060,1424,1979,2368,1745175662090145114
8360786,2149,1374,2075,2366,1745175662090145114
8361786,2221,1361,2155,2348,1745175662090145114
8362786,2267,1372,2218,2271,1745175662153623076
8363786,2289,1398,2246,2115,1745175662153623076
8364786,2293,1433,2242,1904,1745175662153623076
8365786,2262,1503,2200,1692,1745175662153623076
8366786,2195,1592,2141,1526,1745175662153623076
8367786,2121,1685,2087,1412,1745175662153623076
8368786,2064,1753,2058,1378,1745175662153623076
8369786,2035,1809,2060,1417,1745175662153623076
8370786,2049,1858,2083,1506,1745175662153623076
8371786,2078,1908,2118,1576,1745175662153623076
8372787,2113,1970,2144,1635,1745175662153623076
8373787,2129,2053,2145,1673,1745175662153623076
8374787,2121,2154,2101,1691,1745175662153623076
8375787,2081,2264,2019,1708,1745175662153623076
8376787,2029,2350,1941,1743,1745175662153623076
8377787,1995,2392,1906,1779,1745175662153623076
8378787,2004,2357,1922,1819,1745175662153623076
8379787,2053,2263,1979,1841,1745175662153623076
8380787,2125,2109,2065,1818,1745175662153623076
8381787,2205,1937,2159,1770,1745175662153623076
8382787,2279,1777,2264,1740,1745175662153623076
8383787,2324,1656,2306,1746,1745175662153623076
8384788,2329,1571,2310,1820,1745175662153623076
8385788,2316,1516,2273,1909,1745175662153623076
8386788,2257,1443,2208,2028,1745175662153623076
8387788,2285,1489,2162,2156,1745175662153623076
8388788,2113,1429,2058,2242,1745175662153623076
8389788,2050,1448,2089,2443,1745175662153623076
8390788,2040,1434,1952,2401,1745175662153623076
8391788,2003,1363,1925,2492,1745175662153623076
8392788,2118,1322,1985,2510,1745175662153623076
8393788,2072,1160,1903,2384,1745175662153623076
8394788,2160,1099,1963,2442,1745175662153623076
8395788,2210,987,1861,2321,1745175662153623076
8396789,2154,925,1818,2307,1745175662153623076
8397789,2194,883,1801,2276,1745175662153623076
8398789,2219,856,1790,2245,1745175662153623076
8399789,2222,860,1794,2195,1745175662153623076
8400789,2211,885,1808,2114,1745175662153623076
8401789,2200,906,1834,2021,1745175662153623076
8402789,2205,896,1866,1939,1745175662153623076
8403789,2237,857,1904,1869,1745175662153623076
8404789,2269,821,1944,1822,1745175662153623076
8405789,2298,817,1982,1838,1745175662153623076
8406789,2308,880,2014,1925,1745175662153623076
8407789,2297,1037,2020,2086,1745175662153623076
8408790,2261,1258,1988,2249,1745175662153623076
8409790,2211,1507,1914,2400,1745175662153623076
8410790,2154,1725,1819,2481,1745175662153623076
8411790,2106,1891,1722,2491,1745175662153623076
8412790,2079,1969,1642,2443,1745175662153623076
8413790,2085,1970,1583,2397,1745175662153623076
8414790,2116,1924,1558,2384,1745175662153623076
8415790,2162,1869,1560,2400,1745175662153623076
8416790,2202,1844,1579,2433,1745175662153623076
8417790,2226,1865,1604,2472,1745175662153623076
8418790,2229,1914,1633,2524,1745175662153623076
8419790,2214,1990,1654,2559,1745175662153623076
8420791,2161,2090,1667,2559,1745175662211534682
8421791,2089,2216,1673,2541,1745175662211534682
8422791,2006,2353,1692,2500,1745175662211534682
8423791,1939,2465,1747,2450,1745175662211534682
8424791,1894,2552,1840,2382,1745175662211534682
8425791,1884,2612,1956,2305,1745175662211534682
8426791,1902,2678,2075,2230,1745175662211534682
8427791,1959,2730,2169,2129,1745175662211534682
8428791,2005,2764,2213,2022,1745175662211534682
8429791,2011,2783,2201,1931,1745175662211534682
8430791,1965,2825,2138,1867,1745175662211534682
8431791,1884,2918,2033,1849,1745175662211534682
8432792,1788,3096,1907,1881,1745175662211534682
8433792,1698,3332,1776,1922,1745175662211534682
8434792,1616,3524,1649,1917,1745175662211534682
8435792,1562,3663,1535,1872,1745175662211534682
8436792,1535,3724,1445,1806,1745175662211534682
8437792,1537,3674,1401,1746,1745175662211534682
8438792,1582,3581,1409,1707,1745175662211534682
8439792,1656,3474,1465,1703,1745175662211534682
8440792,1734,3381,1535,1752,1745175662211534682
8441792,1804,3297,1620,1797,1745175662211534682
8442792,1838,3228,1715,1854,1745175662211534682
8443792,1857,3156,1817,1896,1745175662211534682
8444793,1865,3068,1884,1987,1745175662211534682
8445793,1968,3129,1966,1956,1745175662211534682
8446793,1901,2909,2009,1972,1745175662211534682
8447793,1926,2853,2138,2053,1745175662211534682
8448793,2037,2809,2112,1911,1745175662211534682
8449793,1960,2727,2181,1940,1745175662211534682
8450793,2059,2798,2173,1827,1745175662211534682
8451793,1978,2630,2041,1807,1745175662211534682
8452793,1971,2588,2003,1854,1745175662211534682
8453793,1974,2563,1973,1924,1745175662211534682
8454793,1966,2564,1964,1995,1745175662211534682
8455793,1958,2571,1915,2009,1745175662211534682
8456794,1942,2550,1899,2017,1745175662211534682
8457794,1968,2521,1914,1996,1745175662211534682
8458794,2010,2481,1933,1974,1745175662211534682
8459794,2051,2473,1941,1962,1745175662211534682
8460794,2061,2480,1933,1950,1745175662211534682
8461794,2053,2474,1917,1923,1745175662211534682
8462794,2029,2468,1896,1896,1745175662211534682
8463794,2010,2454,1902,1864,1745175662211534682
8464794,2012,2419,1946,1811,1745175662211534682
8465794,2045,2357,2027,1753,1745175662211534682
8466794,2101,2288,2115,1698,1745175662211534682
8467794,2164,2222,2178,1661,1745175662211534682
8468795,2209,2189,2205,1683,1745175662211534682
8469795,2230,2225,2198,1762,1745175662211534682
8470795,2217,2313,2226,1942,1745175662211534682
8471795,2261,2508,2165,1944,1745175662211534682
8472795,2102,2497,2000,1957,1745175662211534682
8473795,2038,2590,1941,1946,1745175662211534682
8474795,2019,2688,1889,1904,1745175662211534682
8475795,2012,2774,1826,1877,1745175662211534682
8476795,2017,2843,1771,1881,1745175662211534682
8477795,2036,2899,1740,1880,1745175662211534682
8478795,2076,2907,1758,1878,1745175662271360281
8479795,2123,2880,1829,1870,1745175662271360281
8480796,2177,2810,1933,1828,1745175662271360281
8481796,2254,2686,2059,1726,1745175662271360281
8482796,2364,2512,2194,1600,1745175662271360281
8483796,2476,2323,2308,1504,1745175662271360281
8484796,2561,2186,2385,1432,1745175662271360281
8485796,2593,2153,2427,1435,1745175662271360281
8486796,2553,2257,2418,1560,1745175662271360281
8487796,2429,2456,2341,1760,1745175662271360281
8488796,2285,2646,2216,1933,1745175662271360281
8489796,2154,2803,2099,2042,1745175662271360281
8490796,2072,2910,2017,2123,1745175662271360281
8491796,2027,2986,1974,2181,1745175662271360281
8492797,2009,3043,1946,2219,1745175662271360281
8493797,2003,3072,1919,2225,1745175662271360281
8494797,2016,3055,1876,2186,1745175662271360281
8495797,2043,2996,1819,2084,1745175662271360281
8496797,2092,2904,1771,1946,1745175662271360281
8497797,2148,2809,1752,1819,1745175662271360281
8498797,2202,2723,1771,1747,1745175662271360281
8499797,2234,2684,1821,1743,1745175662271360281
8500797,2233,2705,1893,1796,1745175662271360281
8501797,2202,2757,1964,1881,1745175662271360281
8502797,2165,2786,2037,1947,1745175662271360281
8503797,2137,2770,2113,1972,1745175662271360281
8504798,2131,2718,2190,1960,1745175662271360281
8505798,2136,2620,2242,1908,1745175662271360281
8506798,2153,2537,2297,1855,1745175662271360281
8507799,2192,2466,2314,1789,1745175662271360281
8508798,2292,2509,2357,1765,1745175662271360281
8509798,2230,2350,2304,1746,1745175662271360281
8510798,2244,2307,2296,1777,1745175662271360281
8511798,2273,2276,2288,1825,1745175662271360281
8512798,2304,2252,2318,1861,1745175662271360281
8513798,2347,2241,2284,1862,1745175662271360281
8514798,2355,2285,2270,1921,1745175662271360281
8515798,2340,2410,2206,2026,1745175662271360281
8516799,2285,2574,2094,2128,1745175662271360281
8517799,2208,2757,1968,2184,1745175662271360281
8518799,2126,2900,1851,2173,1745175662271360281
8519799,2060,3015,1780,2113,1745175662271360281
8520799,2013,3077,1758,2016,1745175662271360281
8521799,1990,3098,1770,1905,1745175662271360281
8522799,1986,3089,1808,1796,1745175662271360281
8523799,1981,3061,1858,1728,1745175662271360281
8524799,1995,3009,1926,1723,1745175662271360281
8525799,2029,2952,2021,1779,1745175662271360281
8526799,2080,2915,2133,1884,1745175662271360281
8527799,2116,2928,2225,2011,1745175662271360281
8528800,2129,2961,2265,2117,1745175662271360281
8529800,2129,2985,2250,2166,1745175662271360281
8530800,2118,2966,2191,2157,1745175662271360281
8531800,2106,2867,2134,2092,1745175662271360281
8532800,2099,2717,2086,2004,1745175662271360281
8533800,2109,2557,2056,1955,1745175662271360281
8534800,2137,2386,2069,1926,1745175662271360281
8535800,2193,2204,2132,1903,1745175662271360281
8536800,2262,2037,2229,1898,1745175662336918485
8537800,2332,1930,2324,1922,1745175662336918485
8538800,2379,1894,2398,1987,1745175662336918485
8539800,2380,1976,2428,2106,1745175662336918485
8540801,2308,2165,2388,2226,1745175662336918485
8541801,2195,2368,2284,2289,1745175662336918485
8542801,2087,2524,2177,2272,1745175662336918485
8543801,2021,2605,2104,2218,1745175662336918485
8544801,2002,2649,2072,2171,1745175662336918485
8545801,2003,2662,2066,2148,1745175662336918485
8546801,2006,2656,2072,2130,1745175662336918485
8547801,2002,2625,2068,2072,1745175662336918485
8548801,2013,2540,2064,1946,1745175662336918485
8549801,2056,2392,2065,1784,1745175662336918485
8550801,2129,2221,2088,1621,1745175662336918485
8551801,2184,2074,2101,1514,1745175662336918485
8552802,2212,2005,2117,1492,1745175662336918485
8553802,2193,2035,2115,1563,1745175662336918485
8554802,2127,2154,2094,1713,1745175662336918485
8555802,2053,2308,2051,1894,1745175662336918485
8556802,2001,2419,2002,2065,1745175662336918485
8557802,1985,2466,1965,2186,1745175662336918485
8558802,1995,2450,1940,2267,1745175662336918485
8559802,2020,2364,1938,2294,1745175662336918485
8560802,2057,2234,1960,2278,1745175662336918485
8561802,2088,2096,2011,2219,1745175662336918485
8562802,2107,1987,2091,2162,1745175662336918485
8563803,2121,1948,2178,2081,1745175662336918485
8564803,2096,1995,2281,2074,1745175662336918485
8565803,2079,2116,2381,2173,1745175662336918485
8566803,2052,2235,2421,2173,1745175662336918485
8567803,2048,2274,2406,2261,1745175662336918485
8568803,2113,2387,2418,2298,1745175662336918485
8569803,2084,2292,2283,2179,1745175662336918485
8570803,1965,2237,2204,2125,1745175662336918485
8571803,1939,2197,2154,2058,1745175662336918485
8572803,1936,2158,2147,2008,1745175662336918485
8573803,1975,2048,2157,1976,1745175662336918485
8574803,2040,1932,2218,1969,1745175662336918485
8575803,2134,1806,2294,1931,1745175662336918485
8576804,2224,1676,2353,1869,1745175662336918485
8577804,2290,1557,2390,1801,1745175662336918485
8578804,2320,1485,2389,1725,1745175662336918485
8579804,2303,1489,2361,1715,1745175662336918485
8580804,2236,1598,2304,1816,1745175662336918485
8581804,2133,1779,2232,1961,1745175662336918485
8582804,2021,1962,2157,2096,1745175662336918485
8583804,1931,2084,2098,2190,1745175662336918485
8584804,1870,2131,2068,2234,1745175662336918485
8585804,1844,2112,2070,2222,1745175662336918485
8586804,1848,2053,2086,2147,1745175662336918485
8587804,1873,1978,2120,2041,1745175662336918485
8588805,1918,1922,2164,1936,1745175662336918485
8589805,1977,1883,2209,1851,1745175662336918485
8590805,2028,1868,2243,1782,1745175662336918485
8591805,2057,1874,2256,1737,1745175662336918485
8592805,2055,1893,2225,1726,1745175662336918485
8593805,2027,1937,2155,1802,1745175662336918485
8594805,1961,2040,2067,1957,1745175662386028036
8595805,1885,2165,1981,2131,1745175662386028036
8596805,1833,2258,1926,2264,1745175662386028036
8597805,1835,2269,1929,2340,1745175662386028036
8598805,1896,2185,1996,2358,1745175662386028036
8599805,1998,2024,2116,2346,1745175662386028036
8600806,2099,1844,2256,2312,1745175662386028036
8601806,2182,1700,2394,2296,1745175662386028036
8602806,2227,1640,2481,2312,1745175662386028036
8603806,2233,1674,2497,2345,1745175662386028036
8604806,2192,1766,2444,2386,1745175662386028036
8605806,2123,1866,2364,2418,1745175662386028036
8606806,2026,1961,2267,2454,1745175662386028036
8607806,1938,2022,2188,2485,1745175662386028036
8608806,1870,2053,2146,2538,1745175662386028036
8609806,1830,2056,2157,2578,1745175662386028036
8610806,1820,2019,2203,2588,1745175662386028036
8611806,1843,1926,2278,2539,1745175662386028036
8612807,1899,1787,2367,2429,1745175662386028036
8613807,1979,1611,2463,2294,1745175662386028036
8614807,2068,1456,2542,2173,1745175662386028036
8615807,2142,1357,2579,2082,1745175662386028036
8616807,2186,1338,2582,2032,1745175662386028036
8617807,2196,1368,2559,2002,1745175662386028036
8618807,2177,1414,2514,1969,1745175662386028036
8619807,2138,1456,2465,1946,1745175662386028036
8620807,2086,1489,2421,1966,1745175662386028036
8621807,2045,1520,2410,2018,1745175662386028036
8622807,2006,1531,2418,2096,1745175662386028036
8623807,2002,1535,2451,2180,1745175662386028036
8624808,2001,1531,2454,2240,1745175662386028036
8625808,2009,1535,2517,2303,1745175662386028036
8626808,2033,1540,2526,2313,1745175662386028036
8627808,2064,1566,2584,2306,1745175662386028036
8628808,2100,1593,2633,2241,1745175662386028036
8629808,2121,1641,2653,2174,1745175662386028036
8630808,2112,1708,2636,2115,1745175662386028036
8631808,2065,1781,2586,2070,1745175662386028036
8632808,2002,1851,2536,2093,1745175662386028036
8633808,1954,1901,2525,2156,1745175662386028036
8634808,1937,1904,2342,2049,1745175662386028036
8635808,1928,1844,2289,2017,1745175662386028036
8636809,1978,1755,2242,1976,1745175662386028036
8637809,2031,1643,2217,1953,1745175662386028036
8638809,2085,1557,2223,1879,1745175662386028036
8639809,2080,1530,2229,1930,1745175662386028036
8640809,2065,1565,2220,2035,1745175662386028036
8641809,2048,1646,2186,2121,1745175662386028036
8642809,2033,1734,2144,2187,1745175662386028036
8643809,2012,1832,2089,2236,1745175662386028036
8644809,1977,1893,2022,2219,1745175662386028036
8645809,1939,1878,1958,2130,1745175662386028036
8646809,1923,1804,1921,2011,1745175662386028036
8647809,1937,1709,1921,1888,1745175662386028036
8648810,1967,1595,1956,1793,1745175662386028036
8649810,2002,1529,1993,1741,1745175662386028036
8650810,2013,1507,2001,1732,1745175662386028036
8651810,1996,1535,1986,1749,1745175662386028036
8652810,1974,1597,1968,1760,1745175662451396970
8653810,1961,1658,1920,1734,1745175662451396970
8654810,1941,1716,1878,1726,1745175662451396970
8655810,1944,1773,1844,1742,1745175662451396970
8656810,1969,1802,1839,1779,1745175662451396970
8657810,2001,1824,1846,1860,1745175662451396970
8658810,2023,1853,1865,1980,1745175662451396970
8659810,2035,1883,1869,2080,1745175662451396970
8660811,2041,1900,1861,2125,1745175662451396970
8661811,2036,1892,1839,2142,1745175662451396970
8662811,2025,1835,1824,2125,1745175662451396970
8663811,2025,1747,1830,2093,1745175662451396970
8664811,2039,1642,1858,2080,1745175662451396970
8665811,2064,1549,1915,2100,1745175662451396970
8666811,2084,1516,2003,2161,1745175662451396970
8667811,2099,1541,2083,2261,1745175662451396970
8668811,2112,1610,2128,2362,1745175662451396970
8669811,2132,1681,2129,2413,1745175662451396970
8670811,2137,1754,2106,2373,1745175662451396970
8671811,2130,1817,2072,2280,1745175662451396970
8672812,2113,1857,2020,2172,1745175662451396970
8673812,2101,1873,1955,2084,1745175662451396970
8674812,2097,1861,1898,2010,1745175662451396970
8675812,2094,1858,1852,1987,1745175662451396970
8676812,2063,1893,1809,2034,1745175662451396970
8677812,2016,1970,1754,2145,1745175662451396970
8678812,1965,2069,1702,2289,1745175662451396970
8679812,1923,2181,1660,2429,1745175662451396970
8680814,1874,2280,1604,2496,1745175662451396970
8681812,1845,2377,1576,2518,1745175662451396970
8682812,1832,2468,1633,2559,1745175662451396970
8683814,1857,2498,1582,2385,1745175662451396970
8684813,1834,2457,1614,2347,1745175662451396970
8685813,1864,2409,1667,2324,1745175662451396970
8686813,1910,2331,1741,2305,1745175662451396970
8687813,1992,2266,1835,2251,1745175662451396970
8688813,2043,2156,1916,2132,1745175662451396970
8689813,2125,2045,1995,1984,1745175662451396970
8690813,2195,1909,2061,1840,1745175662451396970
8691813,2237,1797,2104,1750,1745175662451396970
8692813,2240,1748,2114,1760,1745175662451396970
8693813,2200,1780,2065,1866,1745175662451396970
8694813,2129,1873,1987,2000,1745175662451396970
8695813,2043,2002,1897,2133,1745175662451396970
8696814,1965,2123,1814,2242,1745175662451396970
8697814,1896,2221,1747,2301,1745175662451396970
8698814,1839,2259,1704,2294,1745175662451396970
8699814,1792,2272,1691,2222,1745175662451396970
8700814,1770,2237,1701,2093,1745175662451396970
8701814,1766,2157,1731,1929,1745175662451396970
8702814,1787,2039,1779,1773,1745175662451396970
8703814,1822,1932,1837,1668,1745175662451396970
8704814,1866,1851,1905,1622,1745175662451396970
8705814,1901,1821,1984,1637,1745175662451396970
8706814,1915,1861,2065,1723,1745175662451396970
8707814,1897,1986,2115,1851,1745175662451396970
8708815,1853,2142,2117,1979,1745175662451396970
8709815,1798,2293,2064,2090,1745175662451396970
8710815,1741,2409,1965,2157,1745175662506263448
8711815,1697,2462,1866,2145,1745175662506263448
8712815,1668,2446,1788,2053,1745175662506263448
8713815,1681,2359,1745,1935,1745175662506263448
8714815,1730,2230,1747,1840,1745175662506263448
8715815,1824,2075,1795,1778,1745175662506263448
8716815,1941,1908,1867,1736,1745175662506263448
8717815,2063,1765,1944,1719,1745175662506263448
8718815,2149,1672,2008,1720,1745175662506263448
8719815,2187,1654,2060,1744,1745175662506263448
8720816,2157,1772,2070,1827,1745175662506263448
8721816,2077,1993,2024,1950,1745175662506263448
8722816,1972,2232,1949,2054,1745175662506263448
8723816,1869,2426,1860,2131,1745175662506263448
8724816,1778,2552,1771,2170,1745175662506263448
8725816,1713,2593,1700,2158,1745175662506263448
8726816,1690,2564,1670,2104,1745175662506263448
8727816,1712,2483,1686,2032,1745175662506263448
8728816,1763,2372,1736,1982,1745175662506263448
8729816,1821,2285,1805,1971,1745175662506263448
8730816,1875,2250,1877,1989,1745175662506263448
8731816,1898,2304,1926,2034,1745175662506263448
8732817,1897,2347,1923,2082,1745175662506263448
8733817,1883,2338,1890,2108,1745175662506263448
8734817,1873,2271,1850,2124,1745175662506263448
8735817,1868,2176,1826,2109,1745175662506263448
8736817,1882,2069,1844,2052,1745175662506263448
8737817,1925,1978,1928,1969,1745175662506263448
8738817,1988,1902,2014,1892,1745175662506263448
8739818,2035,1852,2101,1941,1745175662506263448
8740820,2065,1840,2110,2026,1745175662506263448
8741817,1992,1885,2118,2207,1745175662506263448
8742817,1970,1981,2091,2324,1745175662506263448
8743819,1884,2022,2006,2369,1745175662506263448
8744818,1822,2069,1941,2374,1745175662506263448
8745818,1784,2153,1901,2374,1745175662506263448
8746818,1742,2289,1885,2396,1745175662506263448
8747818,1712,2500,1881,2509,1745175662506263448
8748818,1768,2655,1862,2508,1745175662506263448
8749818,1688,2593,1832,2544,1745175662506263448
8750818,1698,2588,1830,2541,1745175662506263448
8751818,1734,2536,1850,2454,1745175662506263448
8752818,1786,2467,1902,2313,1745175662506263448
8753818,1857,2356,1935,2142,1745175662506263448
8754818,1916,2305,1963,2052,1745175662506263448
8755818,1995,2304,1974,2013,1745175662506263448
8756819,2044,2313,1923,2022,1745175662506263448
8757819,2066,2329,1854,2025,1745175662506263448
8758819,2068,2298,1789,1984,1745175662506263448
8759819,2083,2210,1758,1912,1745175662506263448
8760819,2119,2090,1771,1836,1745175662506263448
8761819,2172,1985,1822,1803,1745175662506263448
8762819,2208,1962,1891,1844,1745175662506263448
8763819,2212,2021,1954,1950,1745175662506263448
8764819,2187,2121,2000,2080,1745175662506263448
8765819,2161,2197,2048,2202,1745175662506263448
8766819,2150,2232,2097,2291,1745175662506263448
8767819,2161,2228,2139,2322,1745175662506263448
8768820,2187,2163,2169,2281,1745175662562071480
8769820,2232,2043,2184,2201,1745175662562071480
8770820,2285,1886,2193,2119,1745175662562071480
8771820,2340,1741,2213,2072,1745175662562071480
8772820,2389,1635,2252,2076,1745175662562071480
8773820,2409,1589,2273,2091,1745175662562071480
8774820,2412,1587,2251,2042,1745175662562071480
8775820,2387,1619,2187,1916,1745175662562071480
8776820,2337,1670,2083,1771,1745175662562071480
8777820,2253,1744,1969,1691,1745175662562071480
8778820,2146,1856,1865,1716,1745175662562071480
8779820,2049,1974,1784,1817,1745175662562071480
8780821,1972,2085,1729,1926,1745175662562071480
8781821,1929,2157,1706,2003,1745175662562071480
8782821,1922,2137,1729,2018,1745175662562071480
8783821,1960,2026,1786,1985,1745175662562071480
8784821,2021,1889,1868,1946,1745175662562071480
8785821,2082,1792,1948,1953,1745175662562071480
8786821,2131,1764,2018,2017,1745175662562071480
8787821,2145,1806,2063,2097,1745175662562071480
8788821,2143,1880,2079,2195,1745175662562071480
8789821,2136,1954,2085,2279,1745175662562071480
8790821,2140,1994,2101,2312,1745175662562071480
8791822,2168,1968,2142,2285,1745175662562071480
8792822,2216,1885,2187,2235,1745175662562071480
8793822,2275,1782,2220,2181,1745175662562071480
8794822,2323,1700,2223,2140,1745175662562071480
8795822,2352,1644,2193,2152,1745175662562071480
8796822,2363,1597,2145,2176,1745175662562071480
8797822,2381,1517,2082,2144,1745175662562071480
8798822,2404,1417,2065,2067,1745175662562071480
8799823,2436,1345,2078,1956,1745175662562071480
8800822,2389,1332,2092,1898,1745175662562071480
8801822,2296,1429,2076,1901,1745175662562071480
8802822,2166,1574,2033,2032,1745175662562071480
8803822,2142,1752,1997,2023,1745175662562071480
8804823,1965,1828,1941,2089,1745175662562071480
8805823,1930,1901,1930,2133,1745175662562071480
8806823,1929,1945,1933,2145,1745175662562071480
8807823,1983,1998,1998,2161,1745175662562071480
8808823,2001,1946,1978,2053,1745175662562071480
8809823,2048,1899,2013,1998,1745175662562071480
8810823,2120,1846,2079,1963,1745175662562071480
8811823,2193,1792,2160,1924,1745175662562071480
8812823,2260,1738,2242,1873,1745175662562071480
8813823,2311,1694,2304,1820,1745175662562071480
8814823,2334,1672,2329,1784,1745175662562071480
8815823,2334,1680,2306,1789,1745175662562071480
8816824,2298,1754,2213,1870,1745175662562071480
8817824,2239,1875,2078,2016,1745175662562071480
8818824,2164,1987,1939,2162,1745175662562071480
8819824,2108,2067,1837,2258,1745175662562071480
8820824,2072,2069,1790,2307,1745175662562071480
8821824,2073,1971,1817,2310,1745175662562071480
8822824,2117,1832,1907,2252,1745175662562071480
8823824,2193,1701,2018,2158,1745175662562071480
8824824,2265,1612,2134,2074,1745175662562071480
8825824,2312,1594,2233,2057,1745175662562071480
8826824,2317,1636,2286,2105,1745175662623360555
8827824,2274,1731,2269,2188,1745175662623360555
8828825,2199,1845,2210,2259,1745175662623360555
8829825,2132,1960,2144,2305,1745175662623360555
8830825,2096,2037,2080,2315,1745175662623360555
8831825,2081,2086,2009,2290,1745175662623360555
8832825,2076,2095,1937,2242,1745175662623360555
8833825,2072,2068,1875,2184,1745175662623360555
8834825,2079,1988,1845,2121,1745175662623360555
8835825,2110,1880,1840,2059,1745175662623360555
8836825,2155,1768,1868,1993,1745175662623360555
8837825,2212,1667,1922,1916,1745175662623360555
8838825,2269,1566,2000,1850,1745175662623360555
8839825,2332,1474,2080,1812,1745175662623360555
8840826,2386,1384,2148,1812,1745175662623360555
8841826,2409,1342,2200,1859,1745175662623360555
8842826,2388,1378,2227,1947,1745175662623360555
8843826,2316,1473,2241,2035,1745175662623360555
8844826,2240,1571,2248,2117,1745175662623360555
8845826,2175,1658,2262,2179,1745175662623360555
8846826,2132,1723,2262,2221,1745175662623360555
8847826,2101,1761,2248,2240,1745175662623360555
8848826,2077,1765,2219,2256,1745175662623360555
8849826,2072,1729,2195,2276,1745175662623360555
8850826,2089,1665,2209,2281,1745175662623360555
8851826,2136,1596,2240,2283,1745175662623360555
8852827,2199,1535,2289,2269,1745175662623360555
8853827,2249,1489,2320,2222,1745175662623360555
8854827,2272,1472,2314,2166,1745175662623360555
8855827,2268,1472,2254,2084,1745175662623360555
8856827,2228,1464,2161,2011,1745175662623360555
8857827,2193,1481,2084,1931,1745175662623360555
8858827,2133,1502,1984,1884,1745175662623360555
8859827,2068,1532,1917,1696,1745175662623360555
8860827,1987,1517,1904,1652,1745175662623360555
8861827,1989,1520,1951,1680,1745175662623360555
8862827,2022,1535,2028,1777,1745175662623360555
8863827,2079,1585,2116,1910,1745175662623360555
8864828,2076,1621,2142,2028,1745175662623360555
8865828,2068,1660,2133,2107,1745175662623360555
8866828,2043,1673,2096,2139,1745175662623360555
8867828,2019,1662,2065,2110,1745175662623360555
8868828,2008,1622,2052,2040,1745175662623360555
8869828,2016,1558,2067,1974,1745175662623360555
8870828,2040,1490,2109,1934,1745175662623360555
8871828,2090,1426,2168,1942,1745175662623360555
8872828,2129,1426,2213,1996,1745175662623360555
8873828,2146,1499,2214,2072,1745175662623360555
8874828,2122,1616,2163,2100,1745175662623360555
8875828,2054,1767,2074,2096,1745175662623360555
8876829,1960,1920,1968,2097,1745175662623360555
8877829,1876,2057,1874,2124,1745175662623360555
8878829,1816,2136,1830,2160,1745175662623360555
8879829,1798,2167,1848,2193,1745175662623360555
8880829,1827,2144,1915,2207,1745175662623360555
8881829,1885,2069,2002,2194,1745175662623360555
8882829,1954,1958,2089,2149,1745175662623360555
8883829,2003,1841,2141,2095,1745175662623360555
8884829,2025,1744,2153,2039,1745175662681091018
8885829,2018,1693,2116,2003,1745175662681091018
8886829,1989,1682,2061,1985,1745175662681091018
8887829,1960,1702,2008,1982,1745175662681091018
8888830,1933,1750,1986,1995,1745175662681091018
8889830,1913,1811,1983,2026,1745175662681091018
8890830,1903,1870,1987,2075,1745175662681091018
8891830,1890,1920,1979,2123,1745175662681091018
8892830,1871,1977,1960,2169,1745175662681091018
8893830,1841,2043,1921,2212,1745175662681091018
8894830,1816,2093,1876,2256,1745175662681091018
8895830,1800,2110,1846,2273,1745175662681091018
8896830,1806,2090,1841,2260,1745175662681091018
8897830,1840,2034,1871,2191,1745175662681091018
8898830,1890,1961,1921,2122,1745175662681091018
8899830,1960,1864,1993,2056,1745175662681091018
8900831,2042,1756,2080,1988,1745175662681091018
8901831,2134,1636,2168,1933,1745175662681091018
8902831,2210,1545,2256,1900,1745175662681091018
8903831,2254,1529,2338,1909,1745175662681091018
8904831,2240,1587,2376,1948,1745175662681091018
8905831,2173,1709,2338,1989,1745175662681091018
8906831,2068,1841,2240,2023,1745175662681091018
8907831,1952,1966,2113,2072,1745175662681091018
8908831,1855,2096,1997,2121,1745175662681091018
8909831,1785,2213,1914,2161,1745175662681091018
8910831,1753,2296,1862,2160,1745175662681091018
8911831,1755,2320,1835,2100,1745175662681091018
8912832,1793,2273,1828,2017,1745175662681091018
8913832,1844,2185,1864,1959,1745175662681091018
8914832,1898,2098,1893,1936,1745175662681091018
8915832,1941,2033,1948,1949,1745175662681091018
8916833,1974,2038,1990,2025,1745175662681091018
8917832,1985,2048,1996,2080,1745175662681091018
8918832,2004,2068,2005,2094,1745175662681091018
8919832,2029,2114,2052,2099,1745175662681091018
8920832,2121,2176,2052,2080,1745175662681091018
8921832,2018,2106,2059,2093,1745175662681091018
8922832,1995,2136,2090,2144,1745175662681091018
8923832,1977,2177,2124,2221,1745175662681091018
8924833,1966,2290,2161,2275,1745175662681091018
8925833,1987,2251,2169,2260,1745175662681091018
8926833,2004,2204,2189,2217,1745175662681091018
8927833,2032,2142,2198,2150,1745175662681091018
8928833,2041,2096,2182,2105,1745175662681091018
8929833,2024,2101,2138,2105,1745175662681091018
8930833,1993,2152,2075,2139,1745175662681091018
8931833,1957,2214,2014,2154,1745175662681091018
8932833,1933,2253,1968,2100,1745175662681091018
8933833,1962,2241,1948,1994,1745175662681091018
8934833,2012,2187,1950,1865,1745175662681091018
8935833,2082,2100,1966,1734,1745175662681091018
8936834,2129,2029,1979,1686,1745175662681091018
8937834,2139,2052,1972,1730,1745175662681091018
8938834,2083,2138,1935,1850,1745175662681091018
8939834,2020,2240,1888,1966,1745175662681091018
8940834,1964,2321,1855,2049,1745175662681091018
8941834,1929,2370,1876,2105,1745175662681091018
8942834,1925,2380,1933,2157,1745175662748964773
8943834,1950,2364,2017,2211,1745175662748964773
8944834,2000,2321,2109,2253,1745175662748964773
8945834,2061,2269,2206,2261,1745175662748964773
8946834,2120,2223,2291,2240,1745175662748964773
8947834,2150,2200,2341,2189,1745175662748964773
8948835,2128,2226,2332,2131,1745175662748964773
8949835,2068,2302,2256,2073,1745175662748964773
8950835,1991,2398,2144,2011,1745175662748964773
8951835,1920,2490,2025,1956,1745175662748964773
8952835,1872,2542,1940,1915,1745175662748964773
8953835,1851,2547,1888,1886,1745175662748964773
8954835,1862,2499,1872,1870,1745175662748964773
8955835,1892,2425,1884,1878,1745175662748964773
8956835,1932,2370,1910,1929,1745175662748964773
8957835,1957,2369,1932,1982,1745175662748964773
8958835,1961,2415,1942,2021,1745175662748964773
8959835,1944,2517,1952,2058,1745175662748964773
8960836,1903,2649,1931,2063,1745175662748964773
8961836,1849,2734,1893,2033,1745175662748964773
8962836,1821,2773,1887,1971,1745175662748964773
8963836,1833,2753,1915,1886,1745175662748964773
8964836,1887,2665,1986,1786,1745175662748964773
8965836,1965,2572,2089,1712,1745175662748964773
8966836,2042,2518,2189,1705,1745175662748964773
8967836,2089,2506,2266,1753,1745175662748964773
8968836,2080,2559,2284,1864,1745175662748964773
8969836,2011,2681,2232,2015,1745175662748964773
8970836,1921,2818,2131,2169,1745175662748964773
8971836,1851,2921,2034,2293,1745175662748964773
8972837,1818,2992,1968,2349,1745175662748964773
8973837,1805,2979,1924,2338,1745175662748964773
8974837,1830,2916,1923,2300,1745175662748964773
8975837,1874,2807,1907,2215,1745175662748964773
8976837,1909,2718,1913,2155,1745175662748964773
8977837,1938,2683,1926,2204,1745175662748964773
8978837,1992,2683,1942,2072,1745175662748964773
8979837,1964,2633,1958,2032,1745175662748964773
8980837,1963,2612,1982,1994,1745175662748964773
8981837,1953,2588,1994,1978,1745175662748964773
8982837,1968,2556,2009,1952,1745175662748964773
8983837,1964,2447,2005,1904,1745175662748964773
8984838,2005,2325,2021,1848,1745175662748964773
8985838,2057,2201,2037,1788,1745175662748964773
8986838,2095,2099,2066,1734,1745175662748964773
8987838,2112,2065,2078,1702,1745175662748964773
8988838,2107,2061,2072,1695,1745175662748964773
8989838,2098,2074,2052,1692,1745175662748964773
8990838,2093,2061,2024,1697,1745175662748964773
8991838,2086,2042,1982,1704,1745175662748964773
8992838,2070,2051,1941,1734,1745175662748964773
8993838,2028,2133,1902,1816,1745175662748964773
8994838,1969,2276,1870,1955,1745175662748964773
8995838,1905,2435,1836,2109,1745175662748964773
8996839,1857,2552,1806,2222,1745175662748964773
8997839,1840,2597,1803,2257,1745175662748964773
8998839,1860,2574,1832,2230,1745175662748964773
8999839,1908,2512,1901,2166,1745175662748964773
9000840,1980,2402,1992,2116,1745175662795425182
9001839,2050,2268,2091,2095,1745175662795425182
9002839,2110,2146,2178,2126,1745175662795425182
9003839,2155,2064,2250,2179,1745175662795425182
9004839,2178,2030,2273,2203,1745175662795425182
9005839,2168,2033,2246,2180,1745175662795425182
9006839,2130,2073,2189,2143,1745175662795425182
9007839,2082,2126,2130,2114,1745175662795425182
9008840,2039,2165,2062,2117,1745175662795425182
9009840,2018,2176,2008,2135,1745175662795425182
9010840,2008,2161,1971,2138,1745175662795425182
9011840,2017,2122,1965,2098,1745175662795425182
9012840,2030,2081,1989,2028,1745175662795425182
9013840,2058,2041,2034,1967,1745175662795425182
9014840,2078,2024,2090,1934,1745175662795425182
9015840,2099,2015,2132,1937,1745175662795425182
9016840,2125,1990,2157,1945,1745175662795425182
9017840,2160,1947,2158,1930,1745175662795425182
9018841,2184,1899,2136,1883,1745175662795425182
9019840,2208,1867,2091,1838,1745175662795425182
9020841,2216,1852,2037,1802,1745175662795425182
9021841,2196,1865,1988,1788,1745175662795425182
9022841,2166,1899,1954,1804,1745175662795425182
9023841,2131,1940,1952,1858,1745175662795425182
9024841,2106,1974,1968,1926,1745175662795425182
9025841,2083,1989,1995,1986,1745175662795425182
9026841,2074,1962,2030,2017,1745175662795425182
9027841,2067,1910,2072,2025,1745175662795425182
9028841,2073,1868,2096,2022,1745175662795425182
9029841,2089,1856,2113,2009,1745175662795425182
9030841,2116,1871,2128,2006,1745175662795425182
9031843,2142,1876,2107,1996,1745175662795425182
9032842,2156,1871,2094,1988,1745175662795425182
9033842,2172,1859,2066,1954,1745175662795425182
9034842,2141,1829,2038,1946,1745175662795425182
9035842,2121,1810,2013,1959,1745175662795425182
9036842,2108,1795,1986,1977,1745175662795425182
9037842,2118,1790,1968,1981,1745175662795425182
9038842,2127,1808,1957,1984,1745175662795425182
9039842,2140,1829,1941,1967,1745175662795425182
9040842,2141,1822,1924,1933,1745175662795425182
9041842,2141,1790,1922,1901,1745175662795425182
9042842,2128,1764,1939,1889,1745175662795425182
9043842,2092,1760,1964,1896,1745175662795425182
9044843,2068,1739,1993,1897,1745175662795425182
9045843,2086,1702,2100,1965,1745175662795425182
9046843,2116,1632,2094,1885,1745175662795425182
9047843,2100,1594,2146,1940,1745175662795425182
9048843,2091,1630,2179,2043,1745175662795425182
9049843,2056,1743,2160,2233,1745175662795425182
9050843,2021,1885,2106,2293,1745175662795425182
9051843,1973,1974,2020,2346,1745175662795425182
9052843,1964,2009,1952,2335,1745175662795425182
9053843,1972,1997,1906,2293,1745175662795425182
9054843,1994,1968,1882,2249,1745175662795425182
9055843,2012,1952,1887,2212,1745175662795425182
9056844,2020,1950,1907,2196,1745175662795425182
9057844,2026,1965,1924,2194,1745175662795425182
9058844,2020,1981,1937,2219,1745175662855576403
9059844,2019,1994,1949,2240,1745175662855576403
9060844,2008,1998,1960,2241,1745175662855576403
9061844,1993,2002,1978,2242,1745175662855576403
9062844,1988,1988,2018,2211,1745175662855576403
9063844,1979,1935,2064,2158,1745175662855576403
9064844,2006,1874,2129,2128,1745175662855576403
9065844,2052,1827,2208,2137,1745175662855576403
9066844,2098,1816,2284,2208,1745175662855576403
9067844,2127,1832,2334,2296,1745175662855576403
9068845,2129,1861,2329,2356,1745175662855576403
9069845,2119,1873,2280,2365,1745175662855576403
9070845,2106,1881,2206,2331,1745175662855576403
9071845,2081,1909,2115,2261,1745175662855576403
9072845,2038,1932,2024,2165,1745175662855576403
9073845,2012,1955,1958,2076,1745175662855576403
9074845,2017,1954,1924,2013,1745175662855576403
9075845,2042,1928,1913,1981,1745175662855576403
9076845,2074,1884,1909,1961,1745175662855576403
9077845,2116,1808,1916,1938,1745175662855576403
9078845,2153,1724,1941,1915,1745175662855576403
9079845,2178,1656,1973,1893,1745175662855576403
9080846,2192,1617,2018,1888,1745175662855576403
9081846,2198,1638,2056,1920,1745175662855576403
9082846,2192,1716,2066,1971,1745175662855576403
9083846,2146,1819,2032,2023,1745175662855576403
9084846,2085,1913,1976,2075,1745175662855576403
9085846,2017,1994,1926,2114,1745175662855576403
9086846,1964,2045,1898,2140,1745175662855576403
9087846,1925,2064,1899,2153,1745175662855576403
9088846,1915,2052,1912,2165,1745175662855576403
9089846,1928,2021,1933,2138,1745175662855576403
9090846,1946,1976,1954,2121,1745175662855576403
9091848,1977,1954,1998,2093,1745175662855576403
9092847,2091,1939,2019,2034,1745175662855576403
9093847,2026,1853,2030,1982,1745175662855576403
9094847,2062,1833,2082,1961,1745175662855576403
9095847,2090,1851,2131,1965,1745175662855576403
9096847,2097,1905,2146,2005,1745175662855576403
9097847,2082,2017,2141,2081,1745175662855576403
9098847,2065,2061,2100,2141,1745175662855576403
9099847,2055,2077,2065,2193,1745175662855576403
9100847,2053,2069,2026,2198,1745175662855576403
9101847,2057,2025,2000,2176,1745175662855576403
9102847,2066,1969,1994,2126,1745175662855576403
9103847,2077,1908,2011,2058,1745175662855576403
9104848,2109,1837,2054,1978,1745175662855576403
9105848,2165,1742,2116,1889,1745175662855576403
9106848,2252,1625,2186,1800,1745175662855576403
9107848,2343,1526,2258,1709,1745175662855576403
9108848,2406,1486,2310,1654,1745175662855576403
9109848,2406,1541,2328,1683,1745175662855576403
9110848,2323,1714,2274,1807,1745175662855576403
9111848,2194,1936,2150,1953,1745175662855576403
9112848,2058,2132,2016,2051,1745175662855576403
9113848,1955,2261,1910,2105,1745175662855576403
9114848,1900,2329,1849,2139,1745175662855576403
9115848,1876,2368,1819,2177,1745175662855576403
9116849,1882,2386,1805,2234,1745175662912654527
9117849,1899,2389,1802,2285,1745175662912654527
9118849,1920,2363,1811,2315,1745175662912654527
9119849,1931,2307,1837,2310,1745175662912654527
9120849,1941,2232,1868,2280,1745175662912654527
