timestamp,emg0,emg1,emg2,emg3,pkt_time_ns
8417433,4086,4080,24,34,1745188668126204156
8418430,4077,4080,24,33,1745188668126204156
8419430,4077,4078,25,32,1745188668126204156
8420430,4077,4078,25,30,1745188668126204156
8421430,4077,4078,24,29,1745188668126204156
8422430,4077,4080,24,28,1745188668126204156
8423430,4076,4081,24,27,1745188668126204156
8424431,4077,4080,25,27,1745188668126204156
8425431,4077,4080,24,27,1745188668126204156
8426431,4077,4085,24,27,1745188668126204156
8427431,4078,4080,20,27,1745188668126204156
8428431,4077,4080,24,26,1745188668126204156
8429431,4077,4079,25,26,1745188668126204156
8430431,4071,4080,24,25,1745188668126204156
8431431,4078,4080,25,26,1745188668126204156
8432431,4078,4080,25,26,1745188668126204156
8433431,4078,4080,25,25,1745188668126204156
8434431,4077,4079,24,25,1745188668126204156
8435431,4077,4079,24,25,1745188668126204156
8436432,4078,4078,25,24,1745188668126204156
8437432,4078,4082,25,25,1745188668126204156
8438432,4079,4077,24,25,1745188668126204156
8439433,4078,4079,24,25,1745188668126204156
8440432,4077,4079,24,25,1745188668126204156
8441432,4077,4078,24,25,1745188668126204156
8442432,4077,4073,25,25,1745188668126204156
8443432,4077,4061,25,25,1745188668126204156
8444432,4077,4046,38,25,1745188668126204156
8445432,4077,4025,91,25,1745188668126204156
8446432,4077,4006,173,24,1745188668126204156
8447432,4078,3985,270,24,1745188668126204156
8448433,4077,3968,378,22,1745188668126204156
8449433,4077,3949,489,24,1745188668126204156
8450433,4078,3931,589,24,1745188668126204156
8451433,4078,3914,699,24,1745188668126204156
8452433,4078,3898,809,24,1745188668126204156
8453433,4078,3880,915,24,1745188668126204156
8454433,4078,3850,1020,24,1745188668126204156
8455433,4078,3774,1123,24,1745188668126204156
8456433,4078,3625,1224,24,1745188668126204156
8457433,4078,3412,1324,24,1745188668126204156
8458433,4077,3130,1425,25,1745188668126204156
8459433,4078,2796,1525,24,1745188668126204156
8460434,4077,2433,1621,24,1745188668126204156
8461434,4077,2021,1725,24,1745188668126204156
8462434,4077,1581,1828,24,1745188668126204156
8463434,4076,1232,1934,24,1745188668126204156
8464434,4076,967,2042,24,1745188668126204156
8465434,4075,766,2155,24,1745188668126204156
8466434,4076,609,2270,24,1745188668126204156
8467434,4076,496,2389,24,1745188668126204156
8468434,4076,398,2515,25,1745188668126204156
8469434,4074,322,2640,25,1745188668126204156
8470434,4075,260,2784,24,1745188668126204156
8471434,4075,212,2938,23,1745188668126204156
8472435,4077,174,3101,24,1745188668126204156
8473435,4077,145,3273,24,1745188668126204156
8474435,4076,121,3454,22,1745188668126204156
8475435,4076,102,3620,23,1745188668175435008
8476435,4077,89,3753,24,1745188668175435008
8477435,4076,77,3845,22,1745188668175435008
8478435,4076,67,3913,22,1745188668175435008
8479435,4076,60,3961,24,1745188668175435008
8480435,4077,54,3995,24,1745188668175435008
8481435,4077,50,4019,24,1745188668175435008
8482435,4076,46,4036,24,1745188668175435008
8483435,4076,43,4049,24,1745188668175435008
8484436,4077,41,4058,22,1745188668175435008
8485436,4077,40,4064,24,1745188668175435008
8486436,4076,37,4068,22,1745188668175435008
8487436,4074,37,4073,24,1745188668175435008
8488436,4002,36,4074,24,1745188668175435008
8489436,3821,35,4076,24,1745188668175435008
8490436,3559,33,4076,21,1745188668175435008
8491436,3244,32,4077,22,1745188668175435008
8492436,2881,30,4077,22,1745188668175435008
8493436,2541,32,4078,24,1745188668175435008
8494436,2216,29,4081,21,1745188668175435008
8495436,1922,29,4032,22,1745188668175435008
8496437,1669,30,4079,23,1745188668175435008
8497437,1466,29,4080,24,1745188668175435008
8498437,1289,30,4080,22,1745188668175435008
8499437,1135,29,4072,22,1745188668175435008
8500437,993,28,4080,21,1745188668175435008
8501437,853,28,4080,22,1745188668175435008
8502437,704,28,4081,22,1745188668175435008
8503437,561,28,4080,22,1745188668175435008
8504437,460,28,4081,24,1745188668175435008
8505437,371,28,4080,22,1745188668175435008
8506437,298,27,4081,23,1745188668175435008
8507437,244,27,4080,23,1745188668175435008
8508438,201,26,4081,22,1745188668175435008
8509438,165,26,4080,24,1745188668175435008
8510438,139,27,4081,23,1745188668175435008
8511438,116,27,4080,24,1745188668175435008
8512438,98,27,4080,23,1745188668175435008
8513438,85,27,4080,22,1745188668175435008
8514438,75,27,4082,24,1745188668175435008
8515438,66,25,4080,22,1745188668175435008
8516438,59,27,4082,24,1745188668175435008
8517438,54,27,4081,24,1745188668175435008
8518438,49,27,4081,24,1745188668175435008
8519438,46,26,4081,24,1745188668175435008
8520439,44,26,4080,22,1745188668175435008
8521439,40,24,4081,24,1745188668175435008
8522439,38,21,4081,22,1745188668175435008
8523439,38,26,4081,24,1745188668175435008
8524439,36,27,4081,23,1745188668175435008
8525439,34,26,4082,22,1745188668175435008
8526439,34,25,4081,22,1745188668175435008
8527439,33,25,4081,22,1745188668175435008
8528439,32,26,4082,24,1745188668175435008
8529439,32,27,4081,23,1745188668175435008
8530439,30,26,4082,22,1745188668175435008
8531439,31,26,4082,22,1745188668175435008
8532440,31,26,4081,22,1745188668175435008
8533440,31,26,4082,24,1745188668235422741
8534440,30,26,4081,22,1745188668235422741
8535440,30,26,4083,22,1745188668235422741
8536440,30,26,4080,22,1745188668235422741
8537440,29,26,4082,22,1745188668235422741
8538440,30,26,4082,22,1745188668235422741
8539440,29,26,4082,22,1745188668235422741
8540440,29,26,4081,23,1745188668235422741
8541441,29,26,4082,24,1745188668235422741
8542440,29,25,4081,22,1745188668235422741
8543441,29,25,4082,19,1745188668235422741
8544441,27,24,4084,20,1745188668235422741
8545441,27,25,4081,22,1745188668235422741
8546441,28,25,4082,22,1745188668235422741
8547441,28,26,4082,23,1745188668235422741
8548441,28,25,4082,22,1745188668235422741
8549441,27,26,4082,24,1745188668235422741
8550441,28,22,4080,22,1745188668235422741
8551441,29,26,4082,23,1745188668235422741
8552441,28,25,4082,24,1745188668235422741
8553441,27,25,4081,24,1745188668235422741
8554441,28,26,4082,22,1745188668235422741
8555441,27,26,4081,22,1745188668235422741
8556442,28,25,4082,24,1745188668235422741
8557442,29,25,4081,23,1745188668235422741
8558442,28,25,4082,24,1745188668235422741
8559442,28,26,4082,23,1745188668235422741
8560442,28,26,4082,24,1745188668235422741
8561442,28,27,4082,22,1745188668235422741
8562442,28,25,4082,22,1745188668235422741
8563442,28,25,4081,22,1745188668235422741
8564442,28,25,4081,24,1745188668235422741
8565442,22,25,4081,24,1745188668235422741
8566442,27,26,4083,18,1745188668235422741
8567442,28,26,4082,23,1745188668235422741
8568443,28,25,4081,22,1745188668235422741
8569443,28,26,4083,22,1745188668235422741
8570443,27,26,4082,22,1745188668235422741
8571443,27,26,4081,24,1745188668235422741
8572443,27,26,4081,22,1745188668235422741
8573443,28,26,4082,22,1745188668235422741
8574443,27,25,4081,22,1745188668235422741
8575443,28,25,4082,22,1745188668235422741
8576443,28,25,4082,24,1745188668235422741
8577443,27,25,4081,24,1745188668235422741
8578443,27,26,4081,24,1745188668235422741
8579443,27,25,4081,22,1745188668235422741
8580444,27,25,4082,22,1745188668235422741
8581444,27,25,4082,22,1745188668235422741
8582444,26,25,4081,22,1745188668235422741
8583444,27,24,4085,22,1745188668235422741
8584444,26,25,4082,22,1745188668235422741
8585444,27,25,4082,22,1745188668235422741
8586444,27,25,4082,22,1745188668235422741
8587444,27,25,4083,22,1745188668235422741
8588444,27,24,4082,64,1745188668235422741
8589444,26,25,4082,218,1745188668235422741
8590444,26,25,4082,465,1745188668235422741
8591444,26,24,4082,768,1745188668292600917
8592445,27,25,4083,1116,1745188668292600917
8593445,26,24,4082,1478,1745188668292600917
8594445,27,24,4083,1843,1745188668292600917
8595445,25,25,4082,2217,1745188668292600917
8596445,25,24,4083,2576,1745188668292600917
8597445,26,24,4084,2930,1745188668292600917
8598445,26,23,4086,3237,1745188668292600917
8599445,25,22,4084,3469,1745188668292600917
8600446,25,24,4084,3633,1745188668292600917
8601445,26,23,4083,3762,1745188668292600917
8602445,25,25,4081,3854,1745188668292600917
8603446,25,24,4095,3913,1745188668292600917
8604446,25,21,4091,3979,1745188668292600917
8605446,22,24,4082,3995,1745188668292600917
8606446,24,24,4082,4020,1745188668292600917
8607446,23,24,4084,4038,1745188668292600917
8608446,22,22,4084,4051,1745188668292600917
8609446,22,23,4070,4057,1745188668292600917
8610446,22,22,4085,4066,1745188668292600917
8611446,23,22,4085,4072,1745188668292600917
8612446,22,22,4085,4074,1745188668292600917
8613446,22,23,4085,4076,1745188668292600917
8614446,22,24,4085,4078,1745188668292600917
8615446,21,22,4084,4080,1745188668292600917
8616447,21,21,4086,4080,1745188668292600917
8617447,23,22,4085,4081,1745188668292600917
8618447,22,22,4084,4083,1745188668292600917
8619447,22,64,4086,4083,1745188668292600917
8620447,22,306,4085,4083,1745188668292600917
8621447,23,725,4085,4083,1745188668292600917
8622447,24,1293,4085,4084,1745188668292600917
8623447,23,1926,4086,4084,1745188668292600917
8624447,24,2460,4086,4083,1745188668292600917
8625447,22,2864,4086,4085,1745188668292600917
8626447,24,3182,4085,4085,1745188668292600917
8627447,24,3424,4086,4085,1745188668292600917
8628448,23,3596,4086,4085,1745188668292600917
8629448,24,3729,4085,4084,1745188668292600917
8630448,25,3827,4086,4085,1745188668292600917
8631448,24,3898,4085,4087,1745188668292600917
8632448,23,3950,4085,4086,1745188668292600917
8633448,23,3986,4080,4085,1745188668292600917
8634448,23,4012,3966,4085,1745188668292600917
8635448,22,4030,3752,4085,1745188668292600917
8636448,24,4045,3492,4085,1745188668292600917
8637448,22,4056,3204,4085,1745188668292600917
8638448,24,4062,2916,4084,1745188668292600917
8639448,22,4067,2634,4085,1745188668292600917
8640449,22,4072,2373,4084,1745188668292600917
8641449,24,4074,2115,4084,1745188668292600917
8642449,24,4075,1867,4084,1745188668292600917
8643449,24,4076,1629,4085,1745188668292600917
8644449,24,4078,1409,4085,1745188668292600917
8645449,23,4080,1186,4084,1745188668292600917
8646449,24,4080,971,4085,1745188668292600917
8647449,24,4081,770,4083,1745188668292600917
8648449,23,4081,613,4085,1745188668292600917
8649449,24,4081,498,4084,1745188668352181883
8650449,24,4081,401,4084,1745188668352181883
8651449,23,4081,322,4085,1745188668352181883
8652450,24,4081,260,4084,1745188668352181883
8653450,24,4080,212,4083,1745188668352181883
8654450,24,4081,173,4084,1745188668352181883
8655450,22,4082,144,4084,1745188668352181883
8656450,22,4083,120,4084,1745188668352181883
8657450,22,4080,101,4085,1745188668352181883
8658452,34,4083,86,4085,1745188668352181883
8659450,54,4082,74,4085,1745188668352181883
8660450,206,4081,67,4083,1745188668352181883
8661450,453,4081,56,4095,1745188668352181883
8662450,752,4095,52,4077,1745188668352181883
8663450,1092,4078,46,4082,1745188668352181883
8664451,1450,4080,43,4084,1745188668352181883
8665451,1808,4080,40,4085,1745188668352181883
8666451,2181,4080,37,4081,1745188668352181883
8667451,2549,4081,34,4085,1745188668352181883
8668451,2906,4084,32,4086,1745188668352181883
8669451,3219,4083,32,4087,1745188668352181883
8670451,3456,4084,30,4088,1745188668352181883
8671451,3621,4083,32,4089,1745188668352181883
8672451,3752,4083,29,4088,1745188668352181883
8673451,3844,4082,27,4088,1745188668352181883
8674451,3912,4084,28,4088,1745188668352181883
8675451,3961,4084,27,4089,1745188668352181883
8676452,3996,4084,28,4088,1745188668352181883
8677452,4020,4083,26,4087,1745188668352181883
8678452,4037,4083,26,4088,1745188668352181883
8679452,4050,4084,27,4088,1745188668352181883
8680452,4058,4083,26,4088,1745188668352181883
8681452,4065,4084,26,4089,1745188668352181883
8682452,4068,4082,25,4088,1745188668352181883
8683452,4072,4083,25,4087,1745188668352181883
8684452,4076,4083,25,4088,1745188668352181883
8685452,4077,4084,25,4086,1745188668352181883
8686452,4078,4084,24,4095,1745188668352181883
8687452,4079,4083,25,4094,1745188668352181883
8688453,4080,4083,25,4089,1745188668352181883
8689453,4081,4083,25,4088,1745188668352181883
8690453,4081,4083,24,4088,1745188668352181883
8691453,4082,4084,24,4087,1745188668352181883
8692453,4080,4084,24,4088,1745188668352181883
8693453,4082,4084,24,4089,1745188668352181883
8694453,4083,4084,25,4088,1745188668352181883
8695453,4083,4083,24,4089,1745188668352181883
8696453,4082,4083,25,4089,1745188668352181883
8697453,4082,4084,23,4089,1745188668352181883
8698453,4081,4084,24,4090,1745188668352181883
8699453,4082,4084,25,4090,1745188668352181883
8700454,4083,4083,24,4086,1745188668352181883
8701454,4084,4084,25,4088,1745188668352181883
8702454,4083,4084,21,4089,1745188668352181883
8703454,4084,4084,24,4089,1745188668352181883
8704454,4081,4084,24,4088,1745188668352181883
8705454,4083,4084,24,4089,1745188668352181883
8706454,4084,4083,25,4088,1745188668352181883
8707454,4083,4085,24,4088,1745188668420488551
8708454,4084,4083,24,4088,1745188668420488551
8709454,4083,4083,24,4088,1745188668420488551
8710454,4084,4084,22,4089,1745188668420488551
8711454,4084,4085,23,4088,1745188668420488551
8712455,4083,4084,24,4089,1745188668420488551
8713455,4084,4083,23,4088,1745188668420488551
8714455,4084,4083,22,4087,1745188668420488551
8715455,4084,4083,24,4088,1745188668420488551
8716456,4086,4082,24,4094,1745188668420488551
8717455,4082,4064,24,4084,1745188668420488551
8718455,4084,4084,25,4090,1745188668420488551
8719455,4085,4082,25,4090,1745188668420488551
8720455,4092,4083,22,4084,1745188668420488551
8721455,4095,4095,21,4095,1745188668420488551
8722455,4095,4067,23,4085,1745188668420488551
8723455,4080,4081,23,4085,1745188668420488551
8724456,4082,4082,24,4085,1745188668420488551
8725456,4084,4083,24,4088,1745188668420488551
8726456,4083,4083,23,4085,1745188668420488551
8727456,4083,4083,24,4089,1745188668420488551
8728456,4095,4081,23,4088,1745188668420488551
8729456,4083,4083,23,4089,1745188668420488551
8730456,4086,4084,24,4089,1745188668420488551
8731456,4084,4081,24,4090,1745188668420488551
8732456,4084,4085,23,4088,1745188668420488551
8733456,4084,4084,22,4089,1745188668420488551
8734456,4082,4085,24,4089,1745188668420488551
8735456,4084,4084,24,4089,1745188668420488551
8736457,4084,4085,23,4089,1745188668420488551
8737457,4084,4084,24,4088,1745188668420488551
8738457,4084,4084,23,4076,1745188668420488551
8739457,4085,4084,22,4002,1745188668420488551
8740457,4083,4079,23,3875,1745188668420488551
8741457,4084,4084,24,3733,1745188668420488551
8742457,4084,4083,24,3593,1745188668420488551
8743457,4085,4084,24,3469,1745188668420488551
8744457,4084,4084,24,3351,1745188668420488551
8745457,4084,4084,22,3244,1745188668420488551
8746457,4084,4084,22,3148,1745188668420488551
8747457,4083,4083,24,3062,1745188668420488551
8748458,4084,4083,24,2988,1745188668420488551
8749458,4084,4083,24,2931,1745188668420488551
8750458,4082,4083,22,2889,1745188668420488551
8751458,4089,4084,22,2858,1745188668420488551
8752458,4083,4084,22,2830,1745188668420488551
8753458,4083,4083,22,2797,1745188668420488551
8754458,4083,4083,24,2753,1745188668420488551
8755458,4082,4083,23,2692,1745188668420488551
8756458,4084,4084,22,2610,1745188668420488551
8757458,4082,4083,22,2523,1745188668420488551
8758458,4082,4083,22,2417,1745188668420488551
8759458,4083,4083,22,2306,1745188668420488551
8760459,4083,4083,24,2198,1745188668420488551
8761459,4083,4084,24,2092,1745188668420488551
8762459,4082,4084,22,1993,1745188668420488551
8763459,4082,4084,22,1905,1745188668420488551
8764459,4083,4084,22,1825,1745188668420488551
8765459,4083,4084,22,1754,1745188668471265170
8766459,4082,4083,22,1691,1745188668471265170
8767459,4083,4083,22,1638,1745188668471265170
8768459,4083,4084,23,1594,1745188668471265170
8769459,4082,4083,22,1568,1745188668471265170
8770459,4081,4083,21,1553,1745188668471265170
8771459,4082,4085,22,1549,1745188668471265170
8772460,4083,4083,23,1545,1745188668471265170
8773460,4081,4084,22,1537,1745188668471265170
8774460,4076,4084,22,1525,1745188668471265170
8775461,4082,4084,22,1490,1745188668471265170
8776461,4083,4083,22,1438,1745188668471265170
8777461,4084,4083,22,1371,1745188668471265170
8778460,4082,4084,22,1297,1745188668471265170
8779460,4084,4083,22,1219,1745188668471265170
8780460,4083,4084,22,1139,1745188668471265170
8781460,4083,4083,21,1066,1745188668471265170
8782460,4083,4083,22,996,1745188668471265170
8783460,4082,4083,22,933,1745188668471265170
8784461,4082,4083,22,877,1745188668471265170
8785461,4083,4082,22,827,1745188668471265170
8786461,4082,4090,22,781,1745188668471265170
8787461,4083,4084,22,745,1745188668471265170
8788461,4095,4095,22,706,1745188668471265170
8789461,4069,4095,32,697,1745188668471265170
8790461,4090,4064,62,694,1745188668471265170
8791461,4077,4077,105,710,1745188668471265170
8792461,4082,4081,154,738,1745188668471265170
8793461,4080,4081,203,759,1745188668471265170
8794461,4082,4084,247,773,1745188668471265170
8795461,4081,4084,291,771,1745188668471265170
8796462,4082,4082,332,742,1745188668471265170
8797462,4082,4082,370,697,1745188668471265170
8798462,4082,4083,409,645,1745188668471265170
8799462,4083,4084,446,593,1745188668471265170
8800462,4082,4082,483,533,1745188668471265170
8801462,4082,4084,515,489,1745188668471265170
8802462,4083,4083,557,442,1745188668471265170
8803462,4083,4083,601,398,1745188668471265170
8804462,4083,4084,645,362,1745188668471265170
8805462,4083,4083,689,331,1745188668471265170
8806462,4083,4083,732,304,1745188668471265170
8807462,4082,4083,774,283,1745188668471265170
8808463,4082,4082,817,276,1745188668471265170
8809463,4084,4083,859,289,1745188668471265170
8810463,4083,4085,902,324,1745188668471265170
8811463,4083,4082,944,372,1745188668471265170
8812463,4083,4082,982,424,1745188668471265170
8813463,4064,4084,1020,467,1745188668471265170
8814463,4009,4081,1056,492,1745188668471265170
8815463,3940,4082,1088,492,1745188668471265170
8816463,3877,4073,1117,461,1745188668471265170
8817463,3833,4058,1146,408,1745188668471265170
8818463,3801,4040,1177,344,1745188668471265170
8819463,3781,4017,1212,278,1745188668471265170
8820464,3763,3986,1243,226,1745188668471265170
8821464,3744,3941,1276,181,1745188668471265170
8822464,3716,3884,1309,149,1745188668471265170
8823464,3678,3817,1344,124,1745188668531938418
8824464,3634,3748,1379,105,1745188668531938418
8825464,3583,3676,1414,98,1745188668531938418
8826464,3530,3611,1448,101,1745188668531938418
8827464,3467,3563,1481,108,1745188668531938418
8828464,3395,3521,1515,123,1745188668531938418
8829464,3317,3499,1544,150,1745188668531938418
8830464,3230,3509,1583,189,1745188668531938418
8831464,3134,3542,1622,232,1745188668531938418
8832465,3037,3583,1659,269,1745188668531938418
8833465,2946,3612,1691,284,1745188668531938418
8834465,2864,3624,1721,302,1745188668531938418
8835465,2804,3595,1749,290,1745188668531938418
8836465,2748,3526,1773,258,1745188668531938418
8837465,2723,3410,1794,205,1745188668531938418
8838465,2710,3265,1814,158,1745188668531938418
8839465,2706,3104,1837,123,1745188668531938418
8840465,2726,2955,1867,97,1745188668531938418
8841465,2704,2778,1883,82,1745188668531938418
8842465,2682,2649,1909,69,1745188668531938418
8843465,2661,2534,1937,60,1745188668531938418
8844466,2634,2426,1964,59,1745188668531938418
8845466,2594,2325,1994,68,1745188668531938418
8846466,2559,2260,2021,80,1745188668531938418
8847466,2513,2201,2052,96,1745188668531938418
8848466,2456,2160,2081,116,1745188668531938418
8849466,2393,2145,2109,147,1745188668531938418
8850466,2319,2162,2136,194,1745188668531938418
8851466,2238,2208,2161,249,1745188668531938418
8852466,2156,2265,2184,306,1745188668531938418
8853466,2075,2315,2205,354,1745188668531938418
8854466,2003,2346,2224,394,1745188668531938418
8855466,1946,2346,2242,416,1745188668531938418
8856467,1905,2299,2261,417,1745188668531938418
8857467,1883,2212,2279,400,1745188668531938418
8858467,1874,2103,2296,368,1745188668531938418
8859467,1877,1977,2312,330,1745188668531938418
8860467,1881,1853,2330,291,1745188668531938418
8861467,1886,1730,2348,257,1745188668531938418
8862467,1885,1616,2365,225,1745188668531938418
8863467,1875,1520,2384,200,1745188668531938418
8864467,1858,1432,2402,185,1745188668531938418
8865467,1832,1357,2421,181,1745188668531938418
8866467,1801,1297,2440,188,1745188668531938418
8867467,1766,1252,2461,206,1745188668531938418
8868468,1723,1225,2478,240,1745188668531938418
8869468,1673,1221,2498,294,1745188668531938418
8870468,1614,1249,2516,369,1745188668531938418
8871468,1548,1305,2533,449,1745188668531938418
8872468,1485,1374,2550,504,1745188668531938418
8873468,1418,1438,2559,513,1745188668531938418
8874468,1360,1484,2560,502,1745188668531938418
8875468,1316,1500,2564,452,1745188668531938418
8876468,1287,1473,2565,385,1745188668531938418
8877468,1279,1406,2566,316,1745188668531938418
8878468,1284,1310,2566,260,1745188668531938418
8879468,1300,1198,2570,224,1745188668531938418
8880469,1318,1094,2580,213,1745188668531938418
8881469,1333,996,2595,225,1745188668591591988
8882469,1344,905,2613,251,1745188668591591988
8883469,1345,825,2633,278,1745188668591591988
8884469,1337,759,2649,297,1745188668591591988
8885469,1321,703,2664,304,1745188668591591988
8886469,1297,659,2676,300,1745188668591591988
8887469,1272,628,2692,294,1745188668591591988
8888469,1240,613,2704,297,1745188668591591988
8889469,1201,624,2719,319,1745188668591591988
8890469,1156,665,2736,361,1745188668591591988
8891469,1103,732,2753,417,1745188668591591988
8892470,1048,813,2763,483,1745188668591591988
8893470,994,893,2772,540,1745188668591591988
8894471,948,957,2778,603,1745188668591591988
8895470,914,993,2785,656,1745188668591591988
8896470,893,991,2787,694,1745188668591591988
8897470,891,946,2788,705,1745188668591591988
8898470,902,866,2777,692,1745188668591591988
8899470,922,769,2767,660,1745188668591591988
8900470,947,665,2761,610,1745188668591591988
8901470,973,568,2771,539,1745188668591591988
8902470,983,494,2779,479,1745188668591591988
8903470,997,417,2774,417,1745188668591591988
8904471,998,356,2795,379,1745188668591591988
8905471,972,306,2792,381,1745188668591591988
8906471,964,269,2806,408,1745188668591591988
8907471,944,244,2824,448,1745188668591591988
8908471,914,237,2837,502,1745188668591591988
8909471,878,253,2854,560,1745188668591591988
8910471,839,305,2870,629,1745188668591591988
8911471,794,396,2888,697,1745188668591591988
8912471,747,505,2903,755,1745188668591591988
8913471,701,596,2916,805,1745188668591591988
8914471,662,675,2922,846,1745188668591591988
8915471,635,723,2915,870,1745188668591591988
8916472,621,730,2905,875,1745188668591591988
8917472,627,697,2897,869,1745188668591591988
8918472,648,632,2889,861,1745188668591591988
8919472,676,546,2896,845,1745188668591591988
8920472,707,460,2908,811,1745188668591591988
8921472,739,364,2920,761,1745188668591591988
8922472,763,280,2923,701,1745188668591591988
8923472,779,219,2920,640,1745188668591591988
8924472,787,174,2915,581,1745188668591591988
8925472,787,143,2914,539,1745188668591591988
8926472,780,117,2920,516,1745188668591591988
8927472,766,99,2937,521,1745188668591591988
8928473,745,92,2946,557,1745188668591591988
8929473,714,113,2953,637,1745188668591591988
8930473,675,168,2954,762,1745188668591591988
8931473,629,250,2953,908,1745188668591591988
8932473,582,347,2948,1044,1745188668591591988
8933473,541,444,2939,1156,1745188668591591988
8934473,511,516,2927,1237,1745188668591591988
8935473,496,570,2916,1276,1745188668591591988
8936473,489,585,2909,1265,1745188668591591988
8937473,500,556,2900,1206,1745188668591591988
8938473,516,503,2888,1121,1745188668591591988
8939473,552,418,2881,1041,1745188668643117038
8940474,588,323,2888,988,1745188668643117038
8941474,623,247,2902,974,1745188668643117038
8942474,651,192,2926,989,1745188668643117038
8943474,669,151,2953,1009,1745188668643117038
8944474,683,120,2965,1019,1745188668643117038
8945474,688,98,2964,1013,1745188668643117038
8946474,689,81,2950,993,1745188668643117038
8947474,683,69,2940,968,1745188668643117038
8948474,670,59,2934,940,1745188668643117038
8949474,646,71,2938,918,1745188668643117038
8950474,612,119,2947,928,1745188668643117038
8951474,570,203,2960,986,1745188668643117038
8952475,523,300,2974,1083,1745188668643117038
8953475,490,396,2987,1187,1745188668643117038
8954475,461,477,2993,1264,1745188668643117038
8955476,445,518,2985,1295,1745188668643117038
8956475,444,531,2974,1282,1745188668643117038
8957475,462,511,2964,1238,1745188668643117038
8958475,496,453,2953,1207,1745188668643117038
8959475,525,371,2951,1194,1745188668643117038
8960475,565,288,2958,1185,1745188668643117038
8961475,603,220,2924,1150,1745188668643117038
8962475,636,171,2923,1096,1745188668643117038
8963475,662,136,2903,1017,1745188668643117038
8964476,678,107,2875,938,1745188668643117038
8965476,688,86,2842,892,1745188668643117038
8966476,686,72,2842,898,1745188668643117038
8967476,680,62,2857,948,1745188668643117038
8968476,665,60,2877,1026,1745188668643117038
8969476,641,92,2904,1122,1745188668643117038
8970476,609,158,2927,1220,1745188668643117038
8971476,569,251,2945,1310,1745188668643117038
8972476,526,356,2952,1374,1745188668643117038
8973476,497,456,2950,1414,1745188668643117038
8974476,466,529,2946,1435,1745188668643117038
8975476,450,586,2938,1448,1745188668643117038
8976477,452,602,2932,1444,1745188668643117038
8977477,472,578,2922,1422,1745188668643117038
8978477,507,523,2902,1374,1745188668643117038
8979477,540,454,2884,1312,1745188668643117038
8980477,587,365,2866,1254,1745188668643117038
8981477,630,281,2848,1209,1745188668643117038
8982477,669,216,2817,1179,1745188668643117038
8983477,698,168,2774,1182,1745188668643117038
8984477,716,133,2726,1214,1745188668643117038
8985477,723,107,2685,1257,1745188668643117038
8986477,720,88,2662,1304,1745188668643117038
8987477,713,82,2660,1353,1745188668643117038
8988478,701,96,2673,1402,1745188668643117038
8989478,685,136,2704,1453,1745188668643117038
8990478,657,206,2741,1505,1745188668643117038
8991478,618,305,2778,1542,1745188668643117038
8992478,571,421,2817,1576,1745188668643117038
8993478,525,531,2864,1590,1745188668643117038
8994478,497,634,2907,1583,1745188668643117038
8995478,477,708,2929,1557,1745188668643117038
8996478,481,739,2927,1526,1745188668643117038
8997478,505,722,2907,1476,1745188668701988844
8998478,538,667,2882,1421,1745188668701988844
8999478,589,585,2867,1372,1745188668701988844
9000479,642,504,2864,1336,1745188668701988844
9001479,689,416,2874,1315,1745188668701988844
9002479,726,341,2895,1313,1745188668701988844
9003479,756,287,2916,1323,1745188668701988844
9004479,773,242,2934,1338,1745188668701988844
9005479,784,218,2945,1354,1745188668701988844
9006479,789,209,2946,1369,1745188668701988844
9007479,789,216,2934,1393,1745188668701988844
9008479,782,241,2914,1425,1745188668701988844
9009481,764,288,2886,1463,1745188668701988844
9010479,736,364,2857,1502,1745188668701988844
9011480,698,466,2828,1535,1745188668701988844
9012480,656,566,2827,1550,1745188668701988844
9013480,611,672,2805,1593,1745188668701988844
9014480,586,761,2803,1667,1745188668701988844
9015480,573,820,2792,1752,1745188668701988844
9016480,579,838,2771,1816,1745188668701988844
9017480,606,813,2737,1782,1745188668701988844
9018480,652,754,2699,1654,1745188668701988844
9019480,703,675,2651,1463,1745188668701988844
9020480,754,592,2612,1246,1745188668701988844
9021480,796,513,2601,1102,1745188668701988844
9022480,828,458,2625,1069,1745188668701988844
9023480,852,412,2670,1159,1745188668701988844
9024481,870,382,2717,1332,1745188668701988844
9025481,880,369,2747,1493,1745188668701988844
9026481,883,368,2761,1622,1745188668701988844
9027481,880,381,2772,1710,1745188668701988844
9028481,867,414,2777,1746,1745188668701988844
9029481,848,471,2780,1752,1745188668701988844
9030481,820,545,2778,1759,1745188668701988844
9031481,784,651,2768,1778,1745188668701988844
9032481,744,764,2757,1803,1745188668701988844
9033481,706,873,2749,1833,1745188668701988844
9034481,680,961,2746,1866,1745188668701988844
9035481,668,1019,2746,1887,1745188668701988844
9036482,676,1041,2742,1886,1745188668701988844
9037482,704,1018,2736,1845,1745188668701988844
9038482,748,962,2718,1763,1745188668701988844
9039482,800,881,2699,1654,1745188668701988844
9040482,852,792,2680,1541,1745188668701988844
9041482,905,702,2661,1456,1745188668701988844
9042482,947,620,2642,1408,1745188668701988844
9043482,981,553,2621,1412,1745188668701988844
9044482,1004,508,2601,1465,1745188668701988844
9045482,1020,474,2584,1535,1745188668701988844
9046482,1027,454,2568,1616,1745188668701988844
9047482,1025,455,2559,1693,1745188668701988844
9048483,1014,475,2563,1769,1745188668701988844
9049483,993,511,2587,1832,1745188668701988844
9050483,963,585,2614,1864,1745188668701988844
9051483,925,678,2624,1848,1745188668701988844
9052483,889,779,2605,1806,1745188668701988844
9053483,857,878,2559,1743,1745188668701988844
9054483,830,965,2500,1668,1745188668701988844
9055483,816,1030,2461,1603,1745188668766110550
9056483,813,1061,2464,1571,1745188668766110550
9057483,831,1053,2509,1579,1745188668766110550
9058483,866,1009,2564,1598,1745188668766110550
9059483,913,941,2625,1613,1745188668766110550
9060484,962,862,2682,1609,1745188668766110550
9061484,1011,785,2730,1577,1745188668766110550
9062484,1051,715,2754,1532,1745188668766110550
9063484,1082,657,2754,1472,1745188668766110550
9064484,1104,610,2733,1435,1745188668766110550
9065484,1118,578,2705,1435,1745188668766110550
9066484,1124,562,2679,1483,1745188668766110550
9067485,1123,562,2668,1550,1745188668766110550
9068486,1112,582,2671,1627,1745188668766110550
9069484,1093,624,2680,1685,1745188668766110550
9070485,1074,692,2681,1717,1745188668766110550
9071484,1029,786,2686,1746,1745188668766110550
9072485,982,882,2656,1760,1745188668766110550
9073485,941,992,2634,1789,1745188668766110550
9074485,915,1070,2606,1829,1745188668766110550
9075485,899,1122,2582,1878,1745188668766110550
9076485,906,1137,2563,1929,1745188668766110550
9077485,935,1114,2559,1966,1745188668766110550
9078485,978,1058,2557,1992,1745188668766110550
9079485,1030,981,2549,2013,1745188668766110550
9080485,1083,897,2529,2031,1745188668766110550
9081485,1132,816,2504,2043,1745188668766110550
9082485,1176,746,2477,2025,1745188668766110550
9083485,1208,691,2459,1965,1745188668766110550
9084486,1230,654,2448,1876,1745188668766110550
9085486,1245,634,2435,1774,1745188668766110550
9086486,1249,629,2425,1673,1745188668766110550
9087486,1244,644,2434,1600,1745188668766110550
9088486,1226,674,2461,1573,1745188668766110550
9089486,1208,729,2503,1601,1745188668766110550
9090486,1177,808,2538,1673,1745188668766110550
9091486,1138,909,2559,1757,1745188668766110550
9092486,1096,1021,2571,1836,1745188668766110550
9093486,1057,1130,2584,1909,1745188668766110550
9094486,1027,1219,2590,1964,1745188668766110550
9095486,1012,1279,2588,1995,1745188668766110550
9096487,1018,1301,2577,1996,1745188668766110550
9097487,1044,1284,2563,1972,1745188668766110550
9098487,1084,1235,2550,1929,1745188668766110550
9099487,1134,1163,2536,1868,1745188668766110550
9100487,1187,1082,2522,1797,1745188668766110550
9101487,1236,1000,2513,1715,1745188668766110550
9102487,1278,926,2504,1621,1745188668766110550
9103487,1312,863,2494,1532,1745188668766110550
9104487,1334,815,2485,1444,1745188668766110550
9105487,1356,780,2476,1383,1745188668766110550
9106489,1364,764,2462,1374,1745188668766110550
9107488,1357,764,2446,1440,1745188668766110550
9108488,1354,788,2438,1560,1745188668766110550
9109488,1333,841,2438,1685,1745188668766110550
9110488,1302,921,2438,1747,1745188668766110550
9111488,1264,1021,2427,1743,1745188668766110550
9112488,1221,1131,2402,1701,1745188668766110550
9113488,1183,1235,2371,1670,1745188668821214786
9114488,1153,1323,2346,1696,1745188668821214786
9115488,1134,1386,2346,1776,1745188668821214786
9116488,1132,1416,2371,1874,1745188668821214786
9117488,1152,1408,2410,1962,1745188668821214786
9118488,1192,1358,2453,2019,1745188668821214786
9119488,1241,1285,2496,2048,1745188668821214786
9120489,1294,1197,2530,2051,1745188668821214786
9121489,1344,1116,2549,2035,1745188668821214786
9122489,1387,1040,2559,2012,1745188668821214786
9123489,1418,976,2559,1985,1745188668821214786
9124489,1442,928,2552,1948,1745188668821214786
9125489,1456,892,2544,1905,1745188668821214786
9126489,1461,877,2558,1857,1745188668821214786
9127489,1451,877,2529,1813,1745188668821214786
9128489,1429,898,2518,1782,1745188668821214786
9129489,1396,941,2502,1779,1745188668821214786
9130489,1348,1016,2489,1805,1745188668821214786
9131489,1286,1115,2484,1867,1745188668821214786
9132490,1226,1227,2485,1948,1745188668821214786
9133490,1171,1333,2477,2013,1745188668821214786
9134490,1131,1420,2456,2029,1745188668821214786
9135490,1106,1473,2429,1994,1745188668821214786
9136490,1097,1490,2380,1901,1745188668821214786
9137490,1132,1472,2348,1810,1745188668821214786
9138490,1174,1426,2329,1760,1745188668821214786
9139490,1224,1363,2333,1772,1745188668821214786
9140490,1291,1289,2352,1841,1745188668821214786
9141490,1336,1218,2370,1918,1745188668821214786
9142490,1388,1150,2373,1950,1745188668821214786
9143490,1436,1091,2360,1926,1745188668821214786
9144491,1472,1045,2338,1864,1745188668821214786
9145491,1498,1011,2321,1798,1745188668821214786
9146491,1512,994,2317,1748,1745188668821214786
9147491,1521,991,2329,1718,1745188668821214786
9148491,1525,1005,2345,1713,1745188668821214786
9149491,1522,1044,2362,1735,1745188668821214786
9150491,1505,1109,2374,1780,1745188668821214786
9151491,1468,1203,2382,1845,1745188668821214786
9152491,1425,1308,2382,1917,1745188668821214786
9153491,1380,1413,2378,1984,1745188668821214786
9154491,1350,1501,2369,2032,1745188668821214786
9155491,1326,1550,2356,2061,1745188668821214786
9156492,1331,1569,2344,2063,1745188668821214786
9157492,1361,1547,2332,2041,1745188668821214786
9158492,1405,1501,2324,2005,1745188668821214786
9159492,1460,1426,2306,1961,1745188668821214786
9160492,1513,1342,2298,1912,1745188668821214786
9161492,1549,1260,2291,1867,1745188668821214786
9162492,1585,1187,2285,1832,1745188668821214786
9163492,1614,1125,2277,1801,1745188668821214786
9164492,1636,1080,2266,1774,1745188668821214786
9165492,1649,1048,2251,1748,1745188668821214786
9166492,1652,1030,2235,1721,1745188668821214786
9167492,1645,1032,2222,1699,1745188668821214786
9168493,1627,1052,2218,1690,1745188668821214786
9169493,1597,1100,2227,1691,1745188668821214786
9170493,1556,1177,2241,1701,1745188668821214786
9171493,1514,1276,2248,1718,1745188668885383106
9172493,1456,1389,2241,1751,1745188668885383106
9173493,1401,1500,2226,1811,1745188668885383106
9174493,1356,1590,2216,1898,1745188668885383106
9175493,1327,1657,2221,1981,1745188668885383106
9176493,1323,1689,2250,2029,1745188668885383106
9177493,1349,1676,2283,2051,1745188668885383106
9178493,1395,1627,2318,2078,1745188668885383106
9179493,1450,1553,2345,2118,1745188668885383106
9180494,1506,1479,2360,2166,1745188668885383106
9181494,1549,1402,2369,2211,1745188668885383106
9182494,1593,1337,2366,2216,1745188668885383106
9183494,1629,1282,2361,2160,1745188668885383106
9184497,1653,1241,2371,2067,1745188668885383106
9185494,1668,1211,2389,1975,1745188668885383106
9186494,1676,1196,2392,1905,1745188668885383106
9187494,1674,1194,2380,1871,1745188668885383106
9188494,1665,1212,2356,1874,1745188668885383106
9189494,1641,1252,2332,1915,1745188668885383106
9190494,1604,1325,2330,1992,1745188668885383106
9191494,1560,1421,2297,2064,1745188668885383106
9192495,1508,1535,2284,2128,1745188668885383106
9193495,1459,1646,2274,2177,1745188668885383106
9194495,1418,1742,2260,2206,1745188668885383106
9195495,1393,1804,2249,2206,1745188668885383106
9196495,1393,1833,2240,2178,1745188668885383106
9197495,1418,1821,2232,2136,1745188668885383106
9198495,1464,1774,2220,2096,1745188668885383106
9199495,1522,1703,2208,2048,1745188668885383106
9200495,1574,1624,2194,1994,1745188668885383106
9201495,1633,1547,2185,1947,1745188668885383106
9202495,1683,1486,2179,1916,1745188668885383106
9203495,1723,1429,2169,1894,1745188668885383106
9204496,1750,1384,2154,1878,1745188668885383106
9205496,1768,1354,2144,1869,1745188668885383106
9206496,1775,1339,2145,1865,1745188668885383106
9207496,1777,1341,2161,1862,1745188668885383106
9208496,1766,1365,2188,1846,1745188668885383106
9209496,1746,1414,2221,1822,1745188668885383106
9210496,1712,1493,2249,1814,1745188668885383106
9211496,1662,1588,2261,1837,1745188668885383106
9212496,1604,1701,2258,1888,1745188668885383106
9213496,1550,1811,2248,1962,1745188668885383106
9214496,1512,1902,2242,2050,1745188668885383106
9215496,1482,1964,2234,2126,1745188668885383106
9216497,1478,1990,2221,2170,1745188668885383106
9217497,1500,1982,2206,2171,1745188668885383106
9218497,1536,1944,2202,2140,1745188668885383106
9219497,1595,1882,2213,2098,1745188668885383106
9220497,1658,1816,2233,2066,1745188668885383106
9221497,1718,1750,2253,2037,1745188668885383106
9222497,1769,1692,2265,2005,1745188668885383106
9223497,1804,1644,2266,1962,1745188668885383106
9224497,1828,1610,2259,1916,1745188668885383106
9225497,1842,1590,2248,1884,1745188668885383106
9226497,1845,1581,2228,1872,1745188668885383106
9227497,1841,1576,2204,1878,1745188668885383106
9228498,1827,1580,2186,1904,1745188668885383106
9229498,1800,1608,2179,1953,1745188668943455909
9230498,1758,1670,2184,2017,1745188668943455909
9231498,1700,1764,2200,2088,1745188668943455909
9232500,1637,1868,2217,2144,1745188668943455909
9233498,1578,1969,2228,2189,1745188668943455909
9234498,1535,2049,2222,2205,1745188668943455909
9235498,1512,2096,2205,2179,1745188668943455909
9236498,1508,2105,2181,2125,1745188668943455909
9237498,1535,2073,2156,2068,1745188668943455909
9238498,1582,2013,2135,2025,1745188668943455909
9239498,1646,1937,2123,2014,1745188668943455909
9240499,1710,1858,2126,2024,1745188668943455909
9241499,1769,1786,2141,2027,1745188668943455909
9242499,1818,1721,2160,2014,1745188668943455909
9243499,1858,1667,2171,1992,1745188668943455909
9244499,1886,1624,2176,1960,1745188668943455909
9245499,1901,1594,2176,1915,1745188668943455909
9246499,1906,1572,2176,1894,1745188668943455909
9247499,1902,1571,2173,1879,1745188668943455909
9248499,1886,1584,2171,1886,1745188668943455909
9249499,1860,1618,2168,1916,1745188668943455909
9250500,1818,1680,2164,1958,1745188668943455909
9251499,1764,1761,2159,1996,1745188668943455909
9252500,1702,1848,2155,2033,1745188668943455909
9253500,1649,1930,2150,2089,1745188668943455909
9254500,1605,1995,2148,2170,1745188668943455909
9255500,1587,2020,2147,2226,1745188668943455909
9256500,1582,2034,2147,2250,1745188668943455909
9257500,1612,1991,2141,2236,1745188668943455909
9258500,1664,1917,2130,2194,1745188668943455909
9259500,1726,1826,2125,2118,1745188668943455909
9260500,1789,1725,2132,2009,1745188668943455909
9261500,1848,1630,2141,1896,1745188668943455909
9262500,1897,1548,2156,1806,1745188668943455909
9263500,1932,1491,2171,1752,1745188668943455909
9264501,1954,1442,2192,1720,1745188668943455909
9265501,1966,1409,2206,1693,1745188668943455909
9266501,1972,1389,2214,1666,1745188668943455909
9267501,1968,1386,2220,1664,1745188668943455909
9268501,1955,1401,2225,1708,1745188668943455909
9269501,1928,1443,2235,1797,1745188668943455909
9270501,1886,1515,2243,1918,1745188668943455909
9271501,1834,1603,2252,2049,1745188668943455909
9272501,1775,1712,2264,2157,1745188668943455909
9273501,1722,1814,2278,2229,1745188668943455909
9274501,1681,1898,2289,2244,1745188668943455909
9275501,1658,1949,2286,2200,1745188668943455909
9276502,1660,1960,2264,2113,1745188668943455909
9277502,1690,1925,2227,1996,1745188668943455909
9278502,1739,1857,2182,1881,1745188668943455909
9279502,1797,1771,2141,1787,1745188668943455909
9280502,1858,1678,2112,1723,1745188668943455909
9281502,1917,1592,2091,1704,1745188668943455909
9282502,1958,1528,2083,1740,1745188668943455909
9283502,1987,1474,2092,1825,1745188668943455909
9284502,2004,1442,2115,1932,1745188668943455909
9285502,2011,1429,2150,2021,1745188668943455909
9286502,2012,1428,2186,2065,1745188668943455909
9287502,2007,1440,2208,2066,1745188668992787281
9288503,1992,1468,2223,2049,1745188668992787281
9289503,1965,1520,2234,2038,1745188668992787281
9290503,1924,1589,2242,2043,1745188668992787281
9291503,1869,1691,2245,2063,1745188668992787281
9292503,1811,1796,2244,2091,1745188668992787281
9293503,1757,1896,2240,2125,1745188668992787281
9294503,1713,1974,2232,2168,1745188668992787281
9295503,1690,2022,2219,2214,1745188668992787281
9296503,1690,2029,2200,2244,1745188668992787281
9297503,1716,1990,2176,2232,1745188668992787281
9298503,1759,1924,2149,2168,1745188668992787281
9299503,1808,1837,2125,2065,1745188668992787281
9300504,1853,1748,2108,1942,1745188668992787281
9301504,1892,1664,2101,1837,1745188668992787281
9302504,1922,1592,2100,1768,1745188668992787281
9303504,1944,1535,2099,1743,1745188668992787281
9304504,1960,1502,2097,1754,1745188668992787281
9305504,1972,1480,2093,1780,1745188668992787281
9306505,1981,1470,2092,1801,1745188668992787281
9307504,1987,1477,2089,1809,1745188668992787281
9308505,1982,1505,2098,1824,1745188668992787281
9309504,1962,1548,2096,1867,1745188668992787281
9310504,1926,1628,2107,1953,1745188668992787281
9311504,1874,1731,2118,2063,1745188668992787281
9312505,1822,1839,2127,2167,1745188668992787281
9313505,1780,1914,2129,2234,1745188668992787281
9314505,1733,2021,2144,2275,1745188668992787281
9315505,1709,2075,2158,2275,1745188668992787281
9316505,1705,2085,2169,2242,1745188668992787281
9317505,1722,2052,2163,2193,1745188668992787281
9318505,1758,1979,2146,2147,1745188668992787281
9319505,1808,1889,2113,2121,1745188668992787281
9320505,1857,1793,2073,2108,1745188668992787281
9321505,1901,1706,2044,2094,1745188668992787281
9322505,1934,1628,2037,2067,1745188668992787281
9323505,1954,1568,2050,2026,1745188668992787281
9324506,1962,1531,2073,1981,1745188668992787281
9325506,1963,1501,2101,1936,1745188668992787281
9326506,1957,1485,2129,1874,1745188668992787281
9327506,1949,1483,2149,1789,1745188668992787281
9328506,1929,1496,2155,1702,1745188668992787281
9329506,1896,1534,2148,1653,1745188668992787281
9330506,1846,1601,2132,1671,1745188668992787281
9331506,1785,1713,2120,1776,1745188668992787281
9332506,1719,1848,2124,1948,1745188668992787281
9333506,1666,1974,2148,2148,1745188668992787281
9334506,1632,2085,2181,2321,1745188668992787281
9335506,1620,2153,2196,2418,1745188668992787281
9336507,1636,2164,2185,2446,1745188668992787281
9337507,1679,2118,2153,2424,1745188668992787281
9338507,1739,2034,2113,2366,1745188668992787281
9339507,1807,1930,2077,2278,1745188668992787281
9340507,1872,1818,2050,2163,1745188668992787281
9341507,1924,1717,2044,2040,1745188668992787281
9342507,1958,1629,2066,1928,1745188668992787281
9343507,1970,1563,2091,1844,1745188668992787281
9344507,1963,1525,2115,1812,1745188668992787281
9345507,1938,1497,2138,1832,1745188669058087153
9346507,1903,1490,2164,1878,1745188669058087153
9347507,1866,1502,2179,1922,1745188669058087153
9348508,1829,1535,2184,1960,1745188669058087153
9349508,1800,1595,2182,1998,1745188669058087153
9350508,1771,1705,2168,2041,1745188669058087153
9351508,1747,1850,2138,2081,1745188669058087153
9352508,1730,2008,2099,2124,1745188669058087153
9353508,1728,2157,2064,2203,1745188669058087153
9354508,1741,2273,2033,2290,1745188669058087153
9355508,1770,2340,2009,2381,1745188669058087153
9356508,1814,2346,1985,2443,1745188669058087153
9357508,1872,2283,1957,2428,1745188669058087153
9358508,1941,2168,1937,2331,1745188669058087153
9359509,2016,2020,1932,2186,1745188669058087153
9360509,2086,1872,1952,2020,1745188669058087153
9361509,2146,1734,1973,1869,1745188669058087153
9362509,2193,1624,1990,1753,1745188669058087153
9363509,2224,1529,1998,1734,1745188669058087153
9364510,2237,1467,2028,1780,1745188669058087153
9365509,2235,1432,2061,1862,1745188669058087153
9366509,2235,1419,2080,1956,1745188669058087153
9367509,2197,1430,2080,2036,1745188669058087153
9368509,2163,1476,2077,2115,1745188669058087153
9369509,2122,1555,2075,2178,1745188669058087153
9370509,2069,1698,2076,2238,1745188669058087153
9371509,2005,1885,2077,2303,1745188669058087153
9372510,1941,2092,2078,2374,1745188669058087153
9373510,1883,2285,2076,2449,1745188669058087153
9374510,1841,2441,2084,2518,1745188669058087153
9375510,1818,2540,2101,2560,1745188669058087153
9376510,1819,2560,2121,2569,1745188669058087153
9377510,1849,2512,2138,2532,1745188669058087153
9378510,1899,2395,2138,2444,1745188669058087153
9379510,1955,2248,2126,2333,1745188669058087153
9380510,2009,2095,2110,2217,1745188669058087153
9381510,2051,1955,2099,2098,1745188669058087153
9382510,2080,1838,2098,1977,1745188669058087153
9383510,2095,1748,2104,1883,1745188669058087153
9384511,2097,1681,2118,1835,1745188669058087153
9385511,2085,1638,2141,1840,1745188669058087153
9386511,2066,1617,2176,1894,1745188669058087153
9387511,2037,1622,2219,1978,1745188669058087153
9388511,2005,1660,2258,2053,1745188669058087153
9389511,1968,1738,2276,2069,1745188669058087153
9390511,1922,1872,2260,2019,1745188669058087153
9391511,1873,2048,2218,1963,1745188669058087153
9392511,1825,2240,2155,1921,1745188669058087153
9393511,1785,2418,2092,1917,1745188669058087153
9394511,1758,2559,2050,1962,1745188669058087153
9395511,1755,2640,2026,2002,1745188669058087153
9396512,1788,2646,2019,1988,1745188669058087153
9397512,1844,2577,2012,1936,1745188669058087153
9398512,1917,2456,2011,1885,1745188669058087153
9399512,1995,2297,2024,1872,1745188669058087153
9400512,2068,2138,2050,1910,1745188669058087153
9401512,2126,1995,2094,1992,1745188669058087153
9402512,2166,1875,2155,2083,1745188669058087153
9403512,2186,1783,2208,2155,1745188669115648138
9404512,2187,1717,2230,2197,1745188669115648138
9405512,2170,1679,2222,2214,1745188669115648138
9406512,2130,1668,2199,2218,1745188669115648138
9407512,2082,1679,2172,2192,1745188669115648138
9408513,2024,1729,2163,2133,1745188669115648138
9409513,1970,1819,2171,2088,1745188669115648138
9410513,1917,1962,2181,2081,1745188669115648138
9411513,1870,2149,2182,2117,1745188669115648138
9412513,1836,2346,2172,2186,1745188669115648138
9413513,1819,2524,2152,2244,1745188669115648138
9414513,1820,2651,2117,2248,1745188669115648138
9415513,1840,2720,2070,2186,1745188669115648138
9416513,1880,2707,2013,2092,1745188669115648138
9417513,1935,2613,1958,2002,1745188669115648138
9418513,2002,2480,1930,1936,1745188669115648138
9419513,2067,2313,1926,1893,1745188669115648138
9420514,2128,2145,1945,1859,1745188669115648138
9421514,2178,1988,1969,1835,1745188669115648138
9422514,2219,1857,1988,1829,1745188669115648138
9423515,2247,1754,2005,1842,1745188669115648138
9424514,2264,1675,2016,1858,1745188669115648138
9425514,2268,1623,2027,1822,1745188669115648138
9426514,2256,1594,2026,1721,1745188669115648138
9427514,2242,1586,2029,1593,1745188669115648138
9428514,2178,1608,1993,1496,1745188669115648138
9429514,2108,1697,1976,1476,1745188669115648138
9430514,2028,1837,1979,1558,1745188669115648138
9431514,1945,2032,2011,1740,1745188669115648138
9432515,1868,2248,2059,1953,1745188669115648138
9433515,1808,2440,2105,2151,1745188669115648138
9434515,1772,2585,2147,2320,1745188669115648138
9435515,1758,2673,2187,2452,1745188669115648138
9436515,1771,2678,2218,2528,1745188669115648138
9437515,1804,2598,2241,2539,1745188669115648138
9438515,1864,2473,2242,2492,1745188669115648138
9439517,1924,2305,2217,2387,1745188669115648138
9440515,1990,2136,2176,2246,1745188669115648138
9441515,2051,1974,2133,2112,1745188669115648138
9442515,2098,1842,2100,2021,1745188669115648138
9443515,2138,1737,2084,2001,1745188669115648138
9444516,2165,1659,2100,2048,1745188669115648138
9445516,2182,1608,2145,2113,1745188669115648138
9446516,2186,1581,2193,2160,1745188669115648138
9447516,2178,1578,2227,2184,1745188669115648138
9448516,2157,1609,2240,2195,1745188669115648138
9449516,2127,1683,2243,2211,1745188669115648138
9450516,2078,1813,2250,2242,1745188669115648138
9451516,2016,1991,2261,2287,1745188669115648138
9452516,1944,2189,2267,2341,1745188669115648138
9453516,1872,2370,2253,2395,1745188669115648138
9454516,1808,2518,2213,2438,1745188669115648138
9455516,1753,2601,2155,2456,1745188669115648138
9456517,1716,2613,2084,2425,1745188669115648138
9457517,1702,2550,2011,2321,1745188669115648138
9458517,1710,2419,1961,2152,1745188669115648138
9459517,1731,2254,1940,1938,1745188669115648138
9460517,1761,2081,1944,1720,1745188669115648138
9461517,1796,1913,1954,1535,1745188669175252333
9462517,1835,1763,1961,1420,1745188669175252333
9463517,1875,1640,1968,1384,1745188669175252333
9464517,1913,1545,1971,1438,1745188669175252333
9465517,1952,1489,1972,1535,1745188669175252333
9466517,1989,1452,1966,1617,1745188669175252333
9467517,2022,1445,1965,1664,1745188669175252333
9468518,2057,1476,1975,1692,1745188669175252333
9469518,2085,1544,1990,1751,1745188669175252333
9470518,2103,1676,2009,1883,1745188669175252333
9471518,2102,1856,2042,2101,1745188669175252333
9472518,2088,2058,2097,2369,1745188669175252333
9473518,2066,2249,2153,2600,1745188669175252333
9474518,2042,2405,2191,2725,1745188669175252333
9475518,2025,2500,2197,2732,1745188669175252333
9476518,2020,2514,2192,2636,1745188669175252333
9477518,2032,2443,2197,2505,1745188669175252333
9478518,2052,2311,2220,2374,1745188669175252333
9479518,2070,2152,2245,2274,1745188669175252333
9480519,2083,1988,2252,2195,1745188669175252333
9481519,2090,1841,2229,2131,1745188669175252333
9482520,2079,1724,2182,2075,1745188669175252333
9483519,2062,1636,2130,2012,1745188669175252333
9484519,2040,1569,2073,1948,1745188669175252333
9485519,2036,1541,2051,1875,1745188669175252333
9486521,2019,1532,2056,1799,1745188669175252333
9487519,2017,1538,2054,1748,1745188669175252333
9488519,2018,1583,2050,1736,1745188669175252333
9489519,2010,1669,2041,1771,1745188669175252333
9490519,1986,1811,2048,1818,1745188669175252333
9491519,1936,1999,2013,1842,1745188669175252333
9492520,1873,2209,2016,1824,1745188669175252333
9493520,1810,2405,2042,1801,1745188669175252333
9494520,1766,2574,2089,1807,1745188669175252333
9495520,1753,2665,2132,1850,1745188669175252333
9496520,1777,2683,2153,1917,1745188669175252333
9497520,1834,2610,2147,1981,1745188669175252333
9498520,1915,2480,2114,2019,1745188669175252333
9499520,2002,2299,2074,2040,1745188669175252333
9500520,2085,2120,2039,2061,1745188669175252333
9501520,2152,1957,2026,2093,1745188669175252333
9502520,2201,1825,2042,2136,1745188669175252333
9503520,2235,1724,2081,2195,1745188669175252333
9504521,2253,1649,2120,2251,1745188669175252333
9505521,2256,1600,2139,2281,1745188669175252333
9506521,2251,1566,2144,2278,1745188669175252333
9507521,2238,1553,2141,2251,1745188669175252333
9508521,2212,1572,2132,2243,1745188669175252333
9509521,2178,1636,2129,2272,1745188669175252333
9510521,2126,1759,2129,2313,1745188669175252333
9511521,2064,1925,2132,2348,1745188669175252333
9512521,1994,2108,2136,2360,1745188669175252333
9513521,1926,2281,2134,2336,1745188669175252333
9514521,1871,2420,2130,2284,1745188669175252333
9515521,1835,2502,2124,2220,1745188669175252333
9516522,1824,2506,2117,2157,1745188669175252333
9517522,1841,2425,2107,2114,1745188669175252333
9518522,1881,2289,2096,2089,1745188669175252333
9519522,1930,2128,2082,2061,1745188669232958993
9520522,1984,1965,2064,2019,1745188669232958993
9521522,2033,1820,2048,1970,1745188669232958993
9522522,2071,1698,2033,1907,1745188669232958993
9523522,2093,1608,2029,1856,1745188669232958993
9524522,2101,1542,2027,1823,1745188669232958993
9525522,2100,1507,2028,1801,1745188669232958993
9526522,2090,1489,2024,1749,1745188669232958993
9527522,2076,1480,2019,1665,1745188669232958993
9528523,2060,1491,2011,1565,1745188669232958993
9529523,2036,1535,2001,1489,1745188669232958993
9530523,2001,1633,1994,1451,1745188669232958993
9531523,1955,1788,1993,1479,1745188669232958993
9532523,1910,1969,1997,1565,1745188669232958993
9533523,1876,2144,2009,1705,1745188669232958993
9534523,1854,2290,2020,1883,1745188669232958993
9535523,1850,2384,2033,2091,1745188669232958993
9536523,1871,2408,2040,2290,1745188669232958993
9537523,1920,2354,2036,2433,1745188669232958993
9538523,1985,2245,2027,2483,1745188669232958993
9539523,2055,2104,2009,2406,1745188669232958993
9540524,2114,1951,1980,2241,1745188669232958993
9541524,2164,1801,1962,2044,1745188669232958993
9542524,2201,1694,1958,1871,1745188669232958993
9543524,2221,1602,1971,1758,1745188669232958993
9544524,2220,1535,2006,1737,1745188669232958993
9545525,2184,1500,2033,1834,1745188669232958993
9546524,2199,1482,2058,1982,1745188669232958993
9547524,2178,1484,2077,2105,1745188669232958993
9548524,2141,1517,2083,2180,1745188669232958993
9549524,2091,1585,2086,2229,1745188669232958993
9550524,2042,1714,2093,2265,1745188669232958993
9551524,1954,1889,2110,2300,1745188669232958993
9552525,1883,2085,2137,2333,1745188669232958993
9553525,1820,2270,2160,2348,1745188669232958993
9554525,1772,2426,2170,2336,1745188669232958993
9555525,1746,2530,2166,2286,1745188669232958993
9556525,1746,2559,2150,2214,1745188669232958993
9557525,1774,2529,2128,2142,1745188669232958993
9558525,1822,2440,2097,2084,1745188669232958993
9559525,1879,2320,2074,2061,1745188669232958993
9560525,1936,2193,2059,2097,1745188669232958993
9561525,1986,2081,2054,2182,1745188669232958993
9562525,2034,1984,2056,2268,1745188669232958993
9563525,2078,1916,2060,2322,1745188669232958993
9564526,2109,1880,2058,2316,1745188669232958993
9565526,2129,1856,2050,2251,1745188669232958993
9566526,2134,1854,2039,2149,1745188669232958993
9567526,2128,1871,2032,2030,1745188669232958993
9568526,2109,1910,2018,1926,1745188669232958993
9569526,2078,1977,2006,1874,1745188669232958993
9570526,2029,2080,1998,1877,1745188669232958993
9571526,1969,2211,1993,1928,1745188669232958993
9572526,1903,2351,2003,2025,1745188669232958993
9573526,1843,2483,2000,2171,1745188669232958993
9574526,1797,2581,2010,2341,1745188669232958993
9575526,1774,2646,2022,2509,1745188669232958993
9576527,1778,2658,2030,2638,1745188669232958993
9577527,1809,2620,2036,2721,1745188669291511167
9578527,1862,2552,2040,2722,1745188669291511167
9579527,1925,2449,2041,2636,1745188669291511167
9580527,1990,2339,2040,2501,1745188669291511167
9581527,2051,2233,2038,2351,1745188669291511167
9582527,2099,2139,2035,2237,1745188669291511167
9583527,2133,2064,2029,2186,1745188669291511167
9584527,2153,2008,2019,2192,1745188669291511167
9585527,2156,1976,2010,2233,1745188669291511167
9586527,2152,1962,2000,2281,1745188669291511167
9587527,2138,1966,1990,2317,1745188669291511167
9588528,2115,1988,1986,2336,1745188669291511167
9589528,2079,2032,1977,2330,1745188669291511167
9590528,2028,2101,1966,2284,1745188669291511167
9591528,1968,2187,1946,2197,1745188669291511167
9592528,1908,2270,1918,2106,1745188669291511167
9593528,1854,2345,1888,2068,1745188669291511167
9594528,1812,2406,1864,2108,1745188669291511167
9595528,1786,2448,1866,2195,1745188669291511167
9596528,1787,2454,1896,2268,1745188669291511167
9597528,1825,2423,1933,2312,1745188669291511167
9598530,1888,2362,1960,2338,1745188669291511167
9599528,1962,2288,1968,2363,1745188669291511167
9600529,2036,2208,1958,2368,1745188669291511167
9601529,2105,2128,1936,2328,1745188669291511167
9602529,2164,2068,1916,2252,1745188669291511167
9603529,2209,2009,1902,2288,1745188669291511167
9604529,2244,1985,1913,2342,1745188669291511167
9605529,2268,1981,1931,2398,1745188669291511167
9606529,2280,1993,1947,2427,1745188669291511167
9607529,2286,2019,1961,2428,1745188669291511167
9608529,2298,2065,1968,2403,1745188669291511167
9609529,2257,2130,1977,2355,1745188669291511167
9610529,2217,2223,1978,2302,1745188669291511167
9611529,2158,2338,1978,2266,1745188669291511167
9612530,2091,2464,1976,2259,1745188669291511167
9613530,2025,2577,1971,2277,1745188669291511167
9614530,1972,2681,1964,2310,1745188669291511167
9615530,1942,2753,1952,2338,1745188669291511167
9616530,1941,2780,1937,2333,1745188669291511167
9617530,1970,2760,1923,2299,1745188669291511167
9618530,2021,2703,1908,2240,1745188669291511167
9619530,2090,2626,1900,2163,1745188669291511167
9620530,2156,2552,1892,2087,1745188669291511167
9621530,2214,2468,1881,2021,1745188669291511167
9622530,2260,2396,1869,1953,1745188669291511167
9623530,2288,2333,1861,1864,1745188669291511167
9624531,2298,2283,1859,1738,1745188669291511167
9625531,2293,2240,1857,1567,1745188669291511167
9626531,2279,2202,1853,1400,1745188669291511167
9627531,2256,2173,1852,1284,1745188669291511167
9628531,2229,2159,1853,1274,1745188669291511167
9629531,2198,2172,1873,1396,1745188669291511167
9630531,2161,2218,1900,1606,1745188669291511167
9631531,2121,2289,1925,1830,1745188669291511167
9632531,2080,2366,1940,2000,1745188669291511167
9633531,2040,2438,1941,2124,1745188669291511167
9634531,2012,2491,1931,2212,1745188669291511167
9635531,1999,2514,1918,2251,1745188669353966534
9636532,2004,2497,1906,2196,1745188669353966534
9637532,2034,2441,1898,2074,1745188669353966534
9638532,2077,2360,1901,1940,1745188669353966534
9639532,2131,2257,1913,1842,1745188669353966534
9640532,2187,2147,1930,1813,1745188669353966534
9641532,2240,2049,1949,1825,1745188669353966534
9642532,2283,1958,1968,1818,1745188669353966534
9643532,2314,1881,1982,1774,1745188669353966534
9644532,2332,1819,1989,1706,1745188669353966534
9645532,2339,1768,2002,1659,1745188669353966534
9646532,2344,1728,2028,1665,1745188669353966534
9647532,2342,1702,2062,1699,1745188669353966534
9648533,2333,1686,2089,1740,1745188669353966534
9649533,2312,1685,2106,1790,1745188669353966534
9650533,2277,1703,2110,1830,1745188669353966534
9651533,2233,1737,2101,1853,1745188669353966534
9652533,2177,1774,2085,1874,1745188669353966534
9653533,2128,1803,2065,1896,1745188669353966534
9654533,2090,1813,2041,1904,1745188669353966534
9655533,2066,1798,2024,1885,1745188669353966534
9656533,2060,1756,2008,1808,1745188669353966534
9657533,2068,1688,1996,1671,1745188669353966534
9658533,2093,1605,1986,1489,1745188669353966534
9659534,2123,1523,1969,1298,1745188669353966534
9660534,2154,1433,1952,1087,1745188669353966534
9661534,2186,1336,1947,920,1745188669353966534
9662534,2182,1277,1923,857,1745188669353966534
9663535,2200,1221,1941,925,1745188669353966534
9664534,2202,1187,1977,1073,1745188669353966534
9665534,2202,1165,2019,1251,1745188669353966534
9666534,2196,1146,2058,1416,1745188669353966534
9667534,2187,1141,2094,1561,1745188669353966534
9668534,2169,1144,2125,1715,1745188669353966534
9669534,2143,1159,2146,1845,1745188669353966534
9670534,2108,1189,2153,1923,1745188669353966534
9671534,2068,1227,2147,1939,1745188669353966534
9672535,2027,1268,2137,1909,1745188669353966534
9673535,1997,1305,2130,1859,1745188669353966534
9674535,1979,1332,2129,1805,1745188669353966534
9675535,1977,1339,2130,1747,1745188669353966534
9676535,1993,1321,2129,1694,1745188669353966534
9677535,2024,1280,2124,1633,1745188669353966534
9678535,2060,1228,2115,1579,1745188669353966534
9679535,2091,1173,2108,1536,1745188669353966534
9680535,2120,1129,2100,1477,1745188669353966534
9681535,2145,1098,2089,1361,1745188669353966534
9682535,2165,1078,2080,1219,1745188669353966534
9683535,2173,1070,2074,1108,1745188669353966534
9684536,2177,1076,2069,1079,1745188669353966534
9685536,2169,1100,2072,1128,1745188669353966534
9686536,2154,1155,2078,1165,1745188669353966534
9687536,2132,1228,2091,1123,1745188669353966534
9688536,2106,1309,2106,1060,1745188669353966534
9689536,2071,1398,2123,1100,1745188669353966534
9690536,2026,1504,2154,1294,1745188669353966534
9691536,1978,1610,2196,1582,1745188669353966534
9692536,1936,1712,2226,1888,1745188669353966534
9693536,1901,1796,2236,2154,1745188669430376044
9694536,1877,1859,2222,2336,1745188669430376044
9695536,1861,1894,2190,2390,1745188669430376044
9696537,1856,1898,2148,2310,1745188669430376044
9697537,1859,1865,2112,2158,1745188669430376044
9698537,1873,1802,2096,2012,1745188669430376044
9699537,1893,1733,2102,1929,1745188669430376044
9700537,1915,1672,2125,1926,1745188669430376044
9701537,1941,1619,2162,1982,1745188669430376044
9702537,1964,1573,2201,2062,1745188669430376044
9703537,1982,1536,2237,2144,1745188669430376044
9704537,1994,1514,2268,2176,1745188669430376044
9705537,1997,1489,2283,2122,1745188669430376044
9706537,1998,1472,2286,1996,1745188669430376044
9707537,1994,1469,2286,1869,1745188669430376044
9708538,1982,1491,2284,1821,1745188669430376044
9709538,1957,1540,2280,1875,1745188669430376044
9710538,1920,1629,2274,2018,1745188669430376044
9711538,1873,1743,2272,2190,1745188669430376044
9712538,1825,1864,2275,2305,1745188669430376044
9713538,1780,1972,2266,2344,1745188669430376044
9714538,1744,2045,2250,2361,1745188669430376044
9715538,1715,2084,2227,2410,1745188669430376044
9716538,1699,2091,2200,2482,1745188669430376044
9717538,1699,2075,2165,2554,1745188669430376044
9718538,1712,2031,2142,2559,1745188669430376044
9719538,1731,1970,2118,2424,1745188669430376044
9720539,1742,1891,2092,2176,1745188669430376044
9721539,1735,1803,2061,1880,1745188669430376044
9722539,1697,1725,2036,1744,1745188669430376044
9723539,1643,1661,2041,1806,1745188669430376044
9724539,1581,1613,2041,2025,1745188669430376044
9725539,1536,1573,2056,2161,1745188669430376044
9726539,1512,1541,2059,2156,1745188669430376044
9727539,1484,1532,2056,2056,1745188669430376044
9728539,1456,1533,2056,1969,1745188669430376044
9729539,1425,1544,2075,1952,1745188669430376044
9730540,1393,1596,2104,1982,1745188669430376044
9731539,1373,1673,2131,2004,1745188669430376044
9732540,1349,1747,2147,2016,1745188669430376044
9733540,1336,1811,2159,2049,1745188669430376044
9734540,1332,1884,2165,2088,1745188669430376044
9735540,1338,1973,2172,2096,1745188669430376044
9736540,1355,2060,2184,2060,1745188669430376044
9737540,1387,2122,2200,1982,1745188669430376044
9738540,1430,2170,2205,1900,1745188669430376044
9739540,1476,2202,2195,1918,1745188669430376044
9740540,1521,2220,2185,2056,1745188669430376044
9741540,1552,2234,2181,2173,1745188669430376044
9742540,1586,2243,2177,2154,1745188669430376044
9743540,1610,2242,2163,1948,1745188669430376044
9744541,1627,2233,2157,1716,1745188669430376044
9745541,1632,2234,2173,1619,1745188669430376044
9746541,1627,2251,2213,1728,1745188669430376044
9747541,1613,2278,2266,2001,1745188669430376044
9748541,1592,2307,2325,2325,1745188669430376044
9749541,1564,2334,2376,2563,1745188669430376044
9750541,1535,2364,2409,2686,1745188669430376044
9751541,1489,2398,2421,2732,1745188669465466661
9752541,1438,2442,2409,2750,1745188669465466661
9753541,1392,2480,2378,2719,1745188669465466661
9754541,1352,2492,2333,2594,1745188669465466661
9755541,1323,2474,2286,2392,1745188669465466661
9756542,1312,2426,2237,2158,1745188669465466661
9757542,1317,2364,2193,2029,1745188669465466661
9758542,1336,2309,2171,2082,1745188669465466661
9759542,1362,2267,2174,2257,1745188669465466661
9760542,1394,2233,2186,2441,1745188669465466661
9761542,1433,2204,2197,2570,1745188669465466661
9762542,1469,2176,2202,2648,1745188669465466661
9763542,1501,2142,2200,2693,1745188669465466661
9764542,1528,2098,2200,2714,1745188669465466661
9765542,1546,2049,2209,2689,1745188669465466661
9766542,1571,2004,2222,2641,1745188669465466661
9767542,1592,1979,2238,2620,1745188669465466661
9768543,1609,1975,2260,2654,1745188669465466661
9769543,1624,1993,2275,2710,1745188669465466661
9770543,1629,2025,2267,2769,1745188669465466661
9771543,1628,2069,2227,2803,1745188669465466661
9772543,1622,2104,2161,2740,1745188669465466661
9773543,1624,2115,2092,2579,1745188669465466661
9774543,1633,2121,2034,2428,1745188669465466661
9775545,1653,2125,2003,2328,1745188669465466661
9776543,1683,2141,2010,2324,1745188669465466661
9777543,1725,2174,2064,2392,1745188669465466661
9778543,1779,2216,2139,2452,1745188669465466661
9779543,1841,2253,2204,2473,1745188669465466661
9780544,1907,2269,2249,2473,1745188669465466661
9781544,1973,2267,2260,2452,1745188669465466661
9782544,2029,2257,2247,2385,1745188669465466661
9783544,2077,2246,2216,2248,1745188669465466661
9784544,2113,2237,2169,2073,1745188669465466661
9785544,2142,2226,2120,1926,1745188669465466661
9786544,2164,2213,2078,1865,1745188669465466661
9787544,2180,2210,2054,1893,1745188669465466661
9788544,2188,2229,2050,1936,1745188669465466661
9789544,2193,2269,2050,1969,1745188669465466661
9790544,2190,2324,2049,2044,1745188669465466661
9791544,2186,2402,2043,2225,1745188669465466661
9792545,2181,2493,2035,2465,1745188669465466661
9793545,2187,2579,2016,2671,1745188669465466661
9794545,2202,2671,1986,2816,1745188669465466661
9795545,2218,2755,1964,2881,1745188669465466661
9796545,2240,2818,1963,2842,1745188669465466661
9797545,2269,2856,1985,2692,1745188669465466661
9798545,2301,2862,2022,2537,1745188669465466661
9799545,2338,2852,2069,2488,1745188669465466661
9800545,2381,2822,2118,2496,1745188669465466661
9801545,2402,2813,2144,2586,1745188669465466661
9802545,2433,2788,2176,2626,1745188669465466661
9803545,2452,2762,2201,2559,1745188669465466661
9804546,2464,2745,2212,2390,1745188669465466661
9805546,2470,2734,2202,2188,1745188669465466661
9806546,2463,2741,2180,2026,1745188669465466661
9807546,2483,2731,2153,1985,1745188669465466661
9808546,2464,2787,2133,2092,1745188669465466661
9809546,2451,2818,2120,2248,1745188669525644340
9810546,2433,2855,2117,2406,1745188669525644340
9811546,2408,2898,2128,2543,1745188669525644340
9812546,2381,2944,2152,2618,1745188669525644340
9813546,2365,2969,2123,2636,1745188669525644340
9814546,2346,3017,2092,2630,1745188669525644340
9815546,2344,3033,2049,2543,1745188669525644340
9816547,2351,3024,2013,2337,1745188669525644340
9817547,2370,2992,2001,2069,1745188669525644340
9818547,2395,2948,2008,1825,1745188669525644340
9819547,2426,2905,2027,1738,1745188669525644340
9820547,2462,2877,2054,1858,1745188669525644340
9821547,2499,2860,2076,2102,1745188669525644340
9822547,2525,2851,2098,2341,1745188669525644340
9823547,2544,2850,2126,2499,1745188669525644340
9824547,2558,2851,2157,2563,1745188669525644340
9825547,2560,2853,2185,2553,1745188669525644340
9826547,2560,2839,2195,2391,1745188669525644340
9827547,2559,2808,2182,2129,1745188669525644340
9828548,2548,2772,2148,1889,1745188669525644340
9829548,2525,2745,2115,1778,1745188669525644340
9830548,2497,2731,2098,1792,1745188669525644340
9831548,2468,2720,2092,1849,1745188669525644340
9832548,2442,2696,2089,1907,1745188669525644340
9833548,2421,2654,2085,1960,1745188669525644340
9834549,2409,2604,2086,1971,1745188669525644340
9835548,2412,2537,2097,1836,1745188669525644340
9836548,2405,2483,2123,1648,1745188669525644340
9837548,2415,2415,2146,1535,1745188669525644340
9838548,2425,2359,2165,1577,1745188669525644340
9839548,2443,2316,2176,1760,1745188669525644340
9840549,2459,2286,2171,1931,1745188669525644340
9841549,2473,2195,2152,2033,1745188669525644340
9842549,2483,2121,2137,2096,1745188669525644340
9843549,2489,2076,2134,2129,1745188669525644340
9844549,2492,2073,2149,2144,1745188669525644340
9845549,2491,2112,2176,2176,1745188669525644340
9846549,2485,2171,2206,2224,1745188669525644340
9847549,2474,2233,2228,2276,1745188669525644340
9848549,2452,2292,2236,2312,1745188669525644340
9849549,2428,2352,2235,2327,1745188669525644340
9850549,2401,2424,2228,2325,1745188669525644340
9851549,2372,2501,2216,2314,1745188669525644340
9852550,2342,2564,2200,2294,1745188669525644340
9853550,2318,2624,2182,2284,1745188669525644340
9854550,2300,2676,2163,2291,1745188669525644340
9855550,2286,2669,2140,2292,1745188669525644340
9856550,2281,2638,2106,2204,1745188669525644340
9857550,2283,2570,2054,1989,1745188669525644340
9858550,2283,2482,1994,1704,1745188669525644340
9859550,2283,2378,1946,1469,1745188669525644340
9860550,2286,2280,1928,1373,1745188669525644340
9861550,2294,2195,1948,1387,1745188669525644340
9862550,2301,2123,1982,1445,1745188669525644340
9863550,2305,2050,2006,1493,1745188669525644340
9864551,2302,2003,2011,1534,1745188669525644340
9865551,2296,1961,2000,1588,1745188669525644340
9866551,2286,1934,1992,1691,1745188669525644340
9867551,2274,1923,2005,1851,1745188669583553186
9868551,2264,1927,2038,2030,1745188669583553186
9869551,2256,1948,2075,2187,1745188669583553186
9870551,2240,1982,2102,2301,1745188669583553186
9871551,2218,2025,2114,2373,1745188669583553186
9872551,2197,2068,2109,2386,1745188669583553186
9873551,2178,2104,2090,2361,1745188669583553186
9874551,2162,2129,2065,2325,1745188669583553186
9875551,2154,2141,2033,2288,1745188669583553186
9876552,2156,2131,2011,2285,1745188669583553186
9877552,2168,2113,2001,2310,1745188669583553186
9878552,2181,2089,2005,2341,1745188669583553186
9879552,2195,2062,2014,2337,1745188669583553186
9880552,2211,2032,2019,2297,1745188669583553186
9881552,2226,1998,2012,2241,1745188669583553186
9882552,2237,1964,1999,2156,1745188669583553186
9883552,2242,1933,1980,2027,1745188669583553186
9884552,2241,1908,1957,1897,1745188669583553186
9885552,2234,1888,1935,1826,1745188669583553186
9886552,2224,1878,1922,1848,1745188669583553186
9887552,2213,1889,1920,1944,1745188669583553186
9888553,2194,1910,1920,2069,1745188669583553186
9889553,2172,1945,1916,2194,1745188669583553186
9890554,2147,1989,1908,2298,1745188669583553186
9891554,2118,2039,1900,2325,1745188669583553186
9892553,2092,2091,1900,2290,1745188669583553186
9893553,2069,2126,1888,2249,1745188669583553186
9894553,2057,2145,1860,2241,1745188669583553186
9895553,2057,2152,1840,2249,1745188669583553186
9896554,2043,2124,1830,2244,1745188669583553186
9897553,2048,2083,1817,2217,1745188669583553186
9898553,2052,2028,1803,2174,1745188669583553186
9899553,2061,1972,1795,2101,1745188669583553186
9900554,2062,1917,1780,1997,1745188669583553186
9901554,2041,1862,1777,1876,1745188669583553186
9902554,2008,1813,1762,1757,1745188669583553186
9903554,1982,1772,1747,1653,1745188669583553186
9904554,1968,1741,1737,1568,1745188669583553186
9905554,1963,1716,1735,1501,1745188669583553186
9906554,1961,1702,1740,1449,1745188669583553186
9907554,1960,1698,1760,1466,1745188669583553186
9908554,1960,1705,1786,1589,1745188669583553186
9909554,1963,1724,1813,1838,1745188669583553186
9910554,1968,1752,1838,2099,1745188669583553186
9911554,1979,1781,1852,2309,1745188669583553186
9912555,2014,1805,1845,2441,1745188669583553186
9913555,2093,1816,1821,2482,1745188669583553186
9914555,2186,1812,1787,2419,1745188669583553186
9915555,2304,1789,1749,2305,1745188669583553186
9916555,2414,1742,1721,2216,1745188669583553186
9917555,2499,1680,1706,2173,1745188669583553186
9918555,2530,1615,1701,2163,1745188669583553186
9919555,2523,1545,1694,2143,1745188669583553186
9920555,2491,1479,1680,2094,1745188669583553186
9921555,2453,1406,1657,2068,1745188669583553186
9922555,2414,1341,1638,2079,1745188669583553186
9923555,2384,1290,1628,2100,1745188669583553186
9924556,2363,1258,1632,2096,1745188669583553186
9925556,2346,1253,1650,2060,1745188669648015098
9926556,2325,1284,1676,1968,1745188669648015098
9927556,2297,1342,1701,1812,1745188669648015098
9928556,2257,1408,1720,1633,1745188669648015098
9929556,2212,1476,1723,1511,1745188669648015098
9930556,2165,1546,1721,1528,1745188669648015098
9931556,2120,1628,1735,1720,1745188669648015098
9932556,2082,1716,1768,2001,1745188669648015098
9933556,2054,1794,1810,2266,1745188669648015098
9934556,2041,1852,1849,2440,1745188669648015098
9935556,2048,1882,1872,2502,1745188669648015098
9936557,2065,1883,1861,2477,1745188669648015098
9937557,2090,1856,1856,2419,1745188669648015098
9938557,2114,1801,1826,2346,1745188669648015098
9939557,2124,1730,1789,2234,1745188669648015098
9940557,2160,1646,1745,2072,1745188669648015098
9941557,2178,1549,1701,1917,1745188669648015098
9942557,2195,1453,1672,1849,1745188669648015098
9943557,2205,1353,1663,1825,1745188669648015098
9944557,2208,1252,1666,1773,1745188669648015098
9945557,2206,1128,1678,1704,1745188669648015098
9946557,2203,979,1698,1736,1745188669648015098
9947557,2200,827,1729,1878,1745188669648015098
9948558,2188,693,1762,2040,1745188669648015098
9949558,2176,587,1785,2160,1745188669648015098
9950558,2157,517,1789,2189,1745188669648015098
9951559,2139,497,1771,2052,1745188669648015098
9952558,2121,500,1729,1790,1745188669648015098
9953558,2120,520,1699,1565,1745188669648015098
9954558,2109,587,1690,1547,1745188669648015098
9955558,2113,688,1726,1800,1745188669648015098
9956558,2124,820,1802,2156,1745188669648015098
9957558,2146,960,1884,2425,1745188669648015098
9958558,2169,1093,1941,2537,1745188669648015098
9959558,2192,1213,1995,2516,1745188669648015098
9960559,2214,1317,2029,2417,1745188669648015098
9961559,2238,1406,2052,2294,1745188669648015098
9962559,2256,1478,2065,2164,1745188669648015098
9963559,2267,1535,2067,2051,1745188669648015098
9964559,2270,1581,2061,1971,1745188669648015098
9965559,2269,1643,2054,1952,1745188669648015098
9966559,2261,1707,2054,1988,1745188669648015098
9967559,2260,1776,2066,2017,1745188669648015098
9968559,2257,1841,2085,2014,1745188669648015098
9969559,2257,1909,2113,1979,1745188669648015098
9970559,2261,1978,2137,1898,1745188669648015098
9971559,2263,2029,2149,1779,1745188669648015098
9972560,2265,2052,2153,1658,1745188669648015098
9973560,2268,2053,2148,1585,1745188669648015098
9974560,2274,2043,2140,1554,1745188669648015098
9975560,2283,2028,2127,1501,1745188669648015098
9976560,2300,2017,2110,1346,1745188669648015098
9977560,2318,2011,2086,1115,1745188669648015098
9978560,2334,2000,2072,908,1745188669648015098
9979560,2346,1999,2082,830,1745188669648015098
9980560,2353,2022,2121,893,1745188669648015098
9981560,2360,2059,2165,1015,1745188669648015098
9982560,2360,2080,2208,1140,1745188669648015098
9983560,2354,2091,2227,1218,1745188669763122223
9984561,2337,2105,2227,1206,1745188669763122223
9985561,2314,2120,2222,1115,1745188669763122223
9986561,2286,2133,2220,958,1745188669763122223
9987561,2256,2142,2221,764,1745188669763122223
9988561,2222,2152,2225,609,1745188669763122223
9989561,2193,2166,2232,561,1745188669763122223
9990561,2152,2190,2256,672,1745188669763122223
9991561,2125,2218,2298,894,1745188669763122223
9992561,2094,2239,2341,1115,1745188669763122223
9993561,2070,2246,2366,1285,1745188669763122223
9994561,2054,2233,2378,1443,1745188669763122223
9995561,2049,2203,2387,1611,1745188669763122223
9996562,2052,2153,2395,1782,1745188669763122223
9997562,2059,2066,2401,1920,1745188669763122223
9998562,2066,1949,2406,2002,1745188669763122223
9999562,2069,1835,2409,2035,1745188669763122223
10000562,2068,1737,2410,2028,1745188669763122223
10001562,2060,1647,2410,1988,1745188669763122223
10002562,2048,1593,2409,1950,1745188669763122223
10003562,2034,1572,2409,1942,1745188669763122223
10004562,2020,1589,2416,1964,1745188669763122223
10005562,2005,1636,2432,1978,1745188669763122223
10006562,1988,1704,2445,1964,1745188669763122223
10007563,1963,1790,2447,1948,1745188669763122223
10008563,1932,1893,2434,1928,1745188669763122223
10009563,1897,2001,2413,1885,1745188669763122223
10010564,1861,2096,2389,1817,1745188669763122223
10011563,1829,2165,2363,1762,1745188669763122223
10012563,1797,2208,2336,1761,1745188669763122223
10013563,1779,2241,2310,1772,1745188669763122223
10014563,1754,2281,2288,1728,1745188669763122223
10015563,1745,2300,2274,1659,1745188669763122223
10016563,1740,2303,2264,1639,1745188669763122223
10017563,1739,2298,2295,1690,1745188669763122223
10018563,1740,2361,2305,1884,1745188669763122223
10019563,1737,2411,2326,2054,1745188669763122223
10020564,1721,2425,2336,2160,1745188669763122223
10021564,1699,2414,2330,2210,1745188669763122223
10022564,1678,2402,2317,2226,1745188669763122223
10023564,1661,2395,2297,2211,1745188669763122223
10024564,1664,2400,2269,2098,1745188669763122223
10025564,1643,2420,2256,1909,1745188669763122223
10026564,1635,2419,2232,1780,1745188669763122223
10027564,1624,2417,2220,1763,1745188669763122223
10028564,1618,2400,2218,1863,1745188669763122223
10029564,1618,2361,2217,2024,1745188669763122223
10030564,1625,2313,2213,2200,1745188669763122223
10031564,1636,2307,2208,2340,1745188669763122223
10032565,1653,2369,2202,2459,1745188669763122223
10033565,1667,2470,2201,2568,1745188669763122223
10034565,1666,2559,2205,2636,1745188669763122223
10035565,1646,2608,2210,2634,1745188669763122223
10036565,1612,2633,2218,2586,1745188669763122223
10037565,1582,2621,2229,2586,1745188669763122223
10038565,1564,2587,2248,2685,1745188669763122223
10039565,1558,2552,2266,2809,1745188669763122223
10040565,1563,2517,2276,2884,1745188669763122223
10041565,1576,2505,2266,2866,1745188669772773385
10042565,1594,2509,2238,2750,1745188669772773385
10043565,1616,2524,2192,2595,1745188669772773385
10044566,1641,2539,2138,2473,1745188669772773385
10045566,1669,2556,2080,2404,1745188669772773385
10046566,1694,2569,2034,2422,1745188669772773385
10047566,1707,2606,2000,2542,1745188669772773385
10048566,1709,2692,1966,2685,1745188669772773385
10049566,1700,2798,1923,2713,1745188669772773385
10050566,1686,2884,1864,2549,1745188669772773385
10051566,1674,2928,1806,2359,1745188669772773385
10052566,1660,2912,1789,2354,1745188669772773385
10053566,1646,2835,1821,2525,1745188669772773385
10054566,1640,2791,1885,2734,1745188669772773385
10055566,1633,2837,1963,2914,1745188669772773385
10056567,1630,2918,2039,3003,1745188669772773385
10057567,1630,2976,2102,3032,1745188669772773385
10058567,1628,3005,2136,3028,1745188669772773385
10059567,1629,2983,2134,3032,1745188669772773385
10060567,1640,2916,2118,3062,1745188669772773385
10061567,1650,2800,2089,3098,1745188669772773385
10062567,1668,2688,2060,3120,1745188669772773385
10063567,1684,2589,2040,3116,1745188669772773385
10064567,1690,2470,2030,3098,1745188669772773385
10065567,1683,2361,2026,3089,1745188669772773385
10066567,1668,2292,2021,3072,1745188669772773385
10067567,1660,2295,2016,3019,1745188669772773385
10068568,1659,2330,2005,2950,1745188669772773385
10069568,1667,2348,1991,2888,1745188669772773385
10070568,1686,2328,1975,2858,1745188669772773385
10071568,1718,2287,1958,2738,1745188669772773385
10072568,1760,2241,1936,2650,1745188669772773385
10073568,1824,2188,1913,2515,1745188669772773385
10074568,1901,2155,1885,2354,1745188669772773385
10075568,1986,2144,1854,2140,1745188669772773385
10076568,2069,2128,1825,1901,1745188669772773385
10077568,2140,2079,1798,1699,1745188669772773385
10078568,2193,1955,1782,1558,1745188669772773385
10079568,2238,1791,1773,1454,1745188669772773385
10080569,2280,1673,1752,1312,1745188669772773385
10081569,2316,1657,1717,1201,1745188669772773385
10082569,2348,1688,1700,1275,1745188669772773385
10083569,2370,1699,1725,1573,1745188669772773385
10084569,2382,1700,1794,1948,1745188669772773385
10085569,2388,1693,1887,2229,1745188669772773385
10086569,2386,1732,1972,2322,1745188669772773385
10087569,2371,1849,2027,2228,1745188669772773385
10088569,2347,2018,2050,2057,1745188669772773385
10089569,2328,2205,2051,1925,1745188669772773385
10090569,2313,2361,2043,1920,1745188669772773385
10091569,2299,2450,2045,2053,1745188669772773385
10092570,2284,2483,2052,2209,1745188669772773385
10093570,2264,2484,2049,2273,1745188669772773385
10094570,2245,2473,2034,2218,1745188669772773385
10095570,2229,2452,2013,2097,1745188669772773385
10096570,2219,2410,1994,1946,1745188669772773385
10097570,2212,2357,1981,1789,1745188669772773385
10098570,2208,2300,1980,1604,1745188669772773385
10099570,2210,2234,1982,1393,1745188669827650384
10100570,2216,2164,1992,1225,1745188669827650384
10101570,2225,2097,2011,1152,1745188669827650384
10102570,2244,2042,2043,1176,1745188669827650384
10103571,2242,2003,2076,1286,1745188669827650384
10104571,2252,1966,2086,1434,1745188669827650384
10105571,2256,1932,2080,1535,1745188669827650384
10106571,2253,1893,2068,1552,1745188669827650384
10107572,2235,1849,2057,1547,1745188669827650384
10108571,2218,1826,2048,1625,1745188669827650384
10109571,2203,1864,2052,1797,1745188669827650384
10110571,2186,1870,2074,1992,1745188669827650384
10111571,2157,1806,2104,2124,1745188669827650384
10112571,2120,1724,2129,2158,1745188669827650384
10113571,2077,1645,2140,2098,1745188669827650384
10114571,2036,1576,2143,2000,1745188669827650384
10115571,2007,1512,2132,1912,1745188669827650384
10116572,1982,1432,2110,1842,1745188669827650384
10117572,1963,1344,2081,1750,1745188669827650384
10118572,1949,1254,2048,1621,1745188669827650384
10119572,1939,1162,2012,1519,1745188669827650384
10120572,1931,1074,1988,1478,1745188669827650384
10121572,1924,989,1979,1504,1745188669827650384
10122572,1918,909,1990,1522,1745188669827650384
10123572,1912,832,2009,1417,1745188669827650384
10124572,1902,756,2021,1218,1745188669827650384
10125572,1893,679,2025,1014,1745188669827650384
10126574,1884,608,2024,896,1745188669827650384
10127572,1875,559,2029,921,1745188669827650384
10128573,1851,540,2036,1030,1745188669827650384
10129573,1789,542,2060,1088,1745188669827650384
10130573,1692,539,2082,1075,1745188669827650384
10131573,1590,515,2105,1118,1745188669827650384
10132573,1517,489,2147,1284,1745188669827650384
10133573,1465,451,2183,1529,1745188669827650384
10134573,1434,409,2219,1660,1745188669827650384
10135573,1418,356,2236,1680,1745188669827650384
10136573,1418,296,2240,1623,1745188669827650384
10137573,1433,237,2234,1526,1745188669827650384
10138573,1462,193,2237,1482,1745188669827650384
10139573,1494,156,2241,1513,1745188669827650384
10140574,1520,130,2240,1578,1745188669827650384
10141574,1536,107,2233,1653,1745188669827650384
10142574,1550,92,2219,1679,1745188669827650384
10143574,1558,78,2196,1601,1745188669827650384
10144574,1560,69,2161,1429,1745188669827650384
10145574,1552,69,2115,1240,1745188669827650384
10146574,1542,72,2075,1146,1745188669827650384
10147574,1535,76,2052,1243,1745188669827650384
10148574,1532,81,2060,1504,1745188669827650384
10149574,1532,96,2092,1801,1745188669827650384
10150574,1535,144,2133,2042,1745188669827650384
10151574,1535,206,2172,2180,1745188669827650384
10152575,1536,290,2207,2204,1745188669827650384
10153575,1540,392,2226,2136,1745188669827650384
10154575,1550,490,2226,2017,1745188669827650384
10155575,1564,553,2210,1897,1745188669827650384
10156575,1578,579,2177,1789,1745188669827650384
10157575,1592,593,2125,1644,1745188669873897461
10158575,1602,652,2063,1417,1745188669873897461
10159575,1601,761,1989,1109,1745188669873897461
10160575,1579,874,1922,858,1745188669873897461
10161575,1552,981,1892,816,1745188669873897461
10162575,1535,1112,1930,1103,1745188669873897461
10163575,1528,1257,2020,1563,1745188669873897461
10164576,1521,1392,2120,2012,1745188669873897461
10165576,1509,1510,2193,2339,1745188669873897461
10166576,1505,1624,2240,2522,1745188669873897461
10167576,1505,1755,2262,2610,1745188669873897461
10168576,1509,1857,2270,2664,1745188669873897461
10169576,1513,1926,2267,2683,1745188669873897461
10170576,1515,1968,2253,2659,1745188669873897461
10171576,1513,1977,2235,2595,1745188669873897461
10172576,1513,1978,2218,2528,1745188669873897461
10173576,1518,1999,2198,2483,1745188669873897461
10174576,1530,2060,2174,2497,1745188669873897461
10175576,1535,2133,2149,2555,1745188669873897461
10176577,1540,2189,2126,2596,1745188669873897461
10177577,1546,2251,2109,2625,1745188669873897461
10178577,1554,2334,2098,2598,1745188669873897461
10179577,1565,2424,2079,2467,1745188669873897461
10180577,1583,2492,2049,2217,1745188669873897461
10181577,1602,2541,2005,1945,1745188669873897461
10182579,1629,2565,1961,1796,1745188669873897461
10183577,1660,2576,1930,1868,1745188669873897461
10184577,1689,2563,1926,2113,1745188669873897461
10185578,1716,2548,1945,2376,1745188669873897461
10186577,1742,2612,1956,2550,1745188669873897461
10187577,1765,2745,1947,2606,1745188669873897461
10188578,1782,2867,1922,2617,1745188669873897461
10189578,1787,2992,1889,2644,1745188669873897461
10190578,1789,3090,1865,2716,1745188669873897461
10191578,1801,3186,1849,2832,1745188669873897461
10192578,1830,3272,1846,2956,1745188669873897461
10193578,1870,3330,1859,3070,1745188669873897461
10194578,1916,3363,1886,3154,1745188669873897461
10195579,1965,3371,1914,3206,1745188669873897461
10196578,2010,3392,1944,3234,1745188669873897461
10197578,2057,3460,1944,3245,1745188669873897461
10198578,2088,3488,1949,3197,1745188669873897461
10199578,2144,3499,1934,3144,1745188669873897461
10200579,2189,3488,1914,3082,1745188669873897461
10201579,2235,3474,1909,2985,1745188669873897461
10202579,2280,3451,1882,2870,1745188669873897461
10203579,2320,3419,1881,2769,1745188669873897461
10204579,2354,3381,1891,2694,1745188669873897461
10205579,2380,3358,1901,2636,1745188669873897461
10206579,2398,3358,1902,2592,1745188669873897461
10207579,2414,3373,1890,2555,1745188669873897461
10208579,2429,3387,1865,2481,1745188669873897461
10209579,2450,3389,1826,2372,1745188669873897461
10210580,2462,3378,1791,2274,1745188669873897461
10211579,2493,3358,1765,2244,1745188669873897461
10212580,2513,3324,1743,2308,1745188669873897461
10213580,2529,3302,1729,2411,1745188669873897461
10214580,2545,3321,1724,2493,1745188669873897461
10215580,2559,3352,1727,2532,1745188669947348405
10216580,2571,3358,1728,2520,1745188669947348405
10217580,2586,3321,1724,2460,1745188669947348405
10218580,2597,3265,1718,2388,1745188669947348405
10219580,2608,3221,1712,2339,1745188669947348405
10220580,2617,3222,1709,2321,1745188669947348405
10221580,2625,3234,1713,2304,1745188669947348405
10222580,2632,3234,1725,2258,1745188669947348405
10223580,2637,3234,1746,2187,1745188669947348405
10224581,2640,3242,1761,2067,1745188669947348405
10225581,2632,3250,1771,1900,1745188669947348405
10226581,2616,3248,1774,1748,1745188669947348405
10227581,2596,3249,1770,1669,1745188669947348405
10228581,2579,3260,1764,1699,1745188669947348405
10229581,2565,3283,1770,1816,1745188669947348405
10230581,2559,3312,1792,1961,1745188669947348405
10231581,2559,3308,1824,2108,1745188669947348405
10232581,2552,3258,1854,2247,1745188669947348405
10233581,2556,3184,1885,2360,1745188669947348405
10234581,2566,3096,1907,2409,1745188669947348405
10235581,2601,2995,1917,2354,1745188669947348405
10236582,2634,2891,1911,2188,1745188669947348405
10237582,2658,2790,1889,1954,1745188669947348405
10238582,2676,2673,1867,1737,1745188669947348405
10239582,2691,2504,1852,1581,1745188669947348405
10240582,2693,2280,1843,1486,1745188669947348405
10241582,2678,2055,1838,1415,1745188669947348405
10242583,2642,1988,1845,1418,1745188669947348405
10243582,2573,2057,1878,1547,1745188669947348405
10244582,2493,2113,1910,1773,1745188669947348405
10245582,2400,2112,1962,1964,1745188669947348405
10246582,2317,2074,2008,2066,1745188669947348405
10247582,2262,2008,2034,2001,1745188669947348405
10248583,2216,1930,2043,1902,1745188669947348405
10249583,2185,1845,2040,1813,1745188669947348405
10250583,2162,1832,2036,1796,1745188669947348405
10251583,2146,1948,2034,1848,1745188669947348405
10252583,2136,2030,2039,1922,1745188669947348405
10253583,2122,1979,2048,2000,1745188669947348405
10254583,2091,1869,2059,2070,1745188669947348405
10255583,2054,1796,2068,2116,1745188669947348405
10256583,2032,1748,2072,2131,1745188669947348405
10257583,2032,1691,2067,2107,1745188669947348405
10258583,2043,1628,2057,2035,1745188669947348405
10259583,2063,1568,2041,1950,1745188669947348405
10260584,2083,1518,2024,1886,1745188669947348405
10261584,2104,1437,2004,1837,1745188669947348405
10262584,2132,1318,1979,1754,1745188669947348405
10263584,2166,1171,1955,1606,1745188669947348405
10264584,2191,1048,1933,1455,1745188669947348405
10265584,2201,1011,1920,1358,1745188669947348405
10266584,2194,1034,1923,1363,1745188669947348405
10267584,2178,1070,1939,1414,1745188669947348405
10268584,2155,1116,1945,1402,1745188669947348405
10269584,2129,1160,1933,1325,1745188669947348405
10270584,2083,1197,1917,1289,1745188669947348405
10271584,2026,1228,1914,1372,1745188669947348405
10272585,1960,1244,1952,1585,1745188669947348405
10273585,1885,1270,2029,1864,1745188669991084932
10274585,1817,1331,2120,2130,1745188669991084932
10275585,1736,1426,2188,2336,1745188669991084932
10276585,1637,1504,2232,2476,1745188669991084932
10277585,1537,1535,2252,2559,1745188669991084932
10278585,1472,1539,2262,2618,1745188669991084932
10279585,1434,1538,2253,2672,1745188669991084932
10280585,1420,1574,2237,2728,1745188669991084932
10281585,1425,1669,2221,2780,1745188669991084932
10282585,1436,1772,2198,2802,1745188669991084932
10283585,1458,1846,2172,2785,1745188669991084932
10284586,1489,1904,2149,2742,1745188669991084932
10285586,1520,1984,2134,2699,1745188669991084932
10286586,1542,2105,2123,2675,1745188669991084932
10287586,1573,2245,2112,2665,1745188669991084932
10288586,1616,2374,2096,2662,1745188669991084932
10289586,1654,2468,2075,2643,1745188669991084932
10290586,1691,2522,2050,2578,1745188669991084932
10291586,1721,2559,2017,2458,1745188669991084932
10292586,1751,2589,1980,2286,1745188669991084932
10293586,1778,2617,1930,2122,1745188669991084932
10294586,1808,2629,1896,2024,1745188669991084932
10295586,1848,2632,1872,2038,1745188669991084932
10296587,1889,2636,1882,2113,1745188669991084932
10297587,1924,2637,1911,2182,1745188669991084932
10298587,1946,2631,1937,2241,1745188669991084932
10299587,1961,2622,1957,2362,1745188669991084932
10300587,1977,2608,1964,2473,1745188669991084932
10301588,1989,2610,1964,2524,1745188669991084932
10302587,1992,2626,1956,2515,1745188669991084932
10303587,1985,2634,1945,2481,1745188669991084932
10304587,1980,2625,1934,2481,1745188669991084932
10305587,1983,2648,1931,2469,1745188669991084932
10306587,2002,2651,1931,2413,1745188669991084932
10307587,2049,2633,1923,2307,1745188669991084932
10308588,2052,2573,1904,2201,1745188669991084932
10309588,2074,2482,1882,2166,1745188669991084932
10310588,2090,2372,1862,2222,1745188669991084932
10311588,2104,2320,1851,2305,1745188669991084932
10312588,2116,2331,1848,2355,1745188669991084932
10313588,2124,2347,1848,2374,1745188669991084932
10314588,2126,2342,1848,2386,1745188669991084932
10315588,2126,2322,1852,2402,1745188669991084932
10316588,2129,2287,1866,2378,1745188669991084932
10317588,2139,2246,1858,2381,1745188669991084932
10318588,2160,2208,1857,2288,1745188669991084932
10319588,2181,2177,1848,2158,1745188669991084932
10320589,2205,2149,1838,2041,1745188669991084932
10321589,2229,2131,1828,1984,1745188669991084932
10322589,2252,2115,1830,2006,1745188669991084932
10323589,2272,2115,1845,2088,1745188669991084932
10324589,2293,2084,1872,2165,1745188669991084932
10325589,2313,2079,1896,2200,1745188669991084932
10326589,2330,2083,1911,2150,1745188669991084932
10327589,2342,2089,1908,2012,1745188669991084932
10328589,2347,2092,1885,1825,1745188669991084932
10329589,2345,2082,1847,1618,1745188669991084932
10330589,2341,2057,1805,1458,1745188669991084932
10331589,2345,2040,1776,1385,1745188670073532200
10332590,2358,2074,1777,1414,1745188670073532200
10333590,2379,2131,1813,1514,1745188670073532200
10334590,2389,2149,1878,1629,1745188670073532200
10335590,2385,2137,1953,1729,1745188670073532200
10336590,2378,2107,2021,1780,1745188670073532200
10337590,2376,2048,2072,1794,1745188670073532200
10338590,2387,2014,2100,1781,1745188670073532200
10339590,2416,2068,2107,1741,1745188670073532200
10340590,2451,2173,2099,1676,1745188670073532200
10341590,2483,2286,2077,1600,1745188670073532200
10342590,2504,2332,2052,1552,1745188670073532200
10343590,2520,2317,2034,1561,1745188670073532200
10344591,2531,2268,2032,1617,1745188670073532200
10345591,2530,2205,2034,1681,1745188670073532200
10346591,2517,2156,2040,1720,1745188670073532200
10347591,2497,2116,2051,1716,1745188670073532200
10348591,2476,2048,2065,1652,1745188670073532200
10349591,2444,1974,2083,1547,1745188670073532200
10350591,2411,1918,2104,1449,1745188670073532200
10351591,2383,1853,2124,1364,1745188670073532200
10352591,2356,1810,2144,1333,1745188670073532200
10353591,2330,1808,2157,1344,1745188670073532200
10354591,2301,1808,2160,1346,1745188670073532200
10355591,2269,1801,2144,1332,1745188670073532200
10356592,2240,1793,2118,1352,1745188670073532200
10357592,2208,1773,2101,1458,1745188670073532200
10358592,2177,1743,2104,1544,1745188670073532200
10359592,2147,1699,2128,1542,1745188670073532200
10360593,2125,1634,2166,1452,1745188670073532200
10361593,2104,1550,2190,1387,1745188670073532200
10362592,2070,1480,2222,1414,1745188670073532200
10363592,2021,1439,2259,1535,1745188670073532200
10364592,1967,1420,2302,1655,1745188670073532200
10365592,1916,1400,2334,1734,1745188670073532200
10366592,1872,1376,2348,1779,1745188670073532200
10367592,1832,1369,2349,1805,1745188670073532200
10368593,1796,1395,2339,1822,1745188670073532200
10369593,1763,1418,2329,1838,1745188670073532200
10370593,1733,1410,2324,1852,1745188670073532200
10371593,1707,1374,2333,1881,1745188670073532200
10372593,1689,1328,2352,1910,1745188670073532200
10373593,1680,1290,2373,1901,1745188670073532200
10374593,1679,1245,2390,1846,1745188670073532200
10375593,1678,1181,2398,1760,1745188670073532200
10376593,1683,1102,2400,1673,1745188670073532200
10377593,1690,1016,2393,1597,1745188670073532200
10378593,1696,925,2384,1562,1745188670073532200
10379593,1701,844,2368,1568,1745188670073532200
10380594,1710,781,2350,1583,1745188670073532200
10381594,1724,729,2332,1598,1745188670073532200
10382594,1735,677,2316,1608,1745188670073532200
10383594,1744,640,2300,1572,1745188670073532200
10384594,1754,620,2284,1460,1745188670073532200
10385594,1759,620,2269,1279,1745188670073532200
10386594,1761,634,2252,1086,1745188670073532200
10387594,1762,648,2241,965,1745188670073532200
10388594,1763,645,2252,984,1745188670073532200
10389594,1765,641,2285,1148,1745188670107820793
10390594,1768,655,2329,1368,1745188670107820793
10391594,1769,715,2364,1569,1745188670107820793
10392595,1770,801,2387,1738,1745188670107820793
10393595,1774,888,2397,1846,1745188670107820793
10394595,1786,974,2401,1906,1745188670107820793
10395595,1800,1065,2409,1931,1745188670107820793
10396595,1814,1142,2419,1930,1745188670107820793
10397595,1825,1199,2429,1893,1745188670107820793
10398595,1826,1237,2433,1826,1745188670107820793
10399595,1826,1260,2421,1744,1745188670107820793
10400595,1836,1264,2400,1677,1745188670107820793
10401595,1848,1284,2376,1666,1745188670107820793
10402595,1870,1336,2361,1710,1745188670107820793
10403595,1890,1398,2358,1763,1745188670107820793
10404596,1903,1454,2361,1794,1745188670107820793
10405596,1909,1498,2358,1814,1745188670107820793
10406596,1908,1531,2342,1839,1745188670107820793
10407596,1905,1548,2314,1880,1745188670107820793
10408596,1905,1605,2278,1947,1745188670107820793
10409596,1905,1694,2246,2042,1745188670107820793
10410596,1906,1771,2227,2171,1745188670107820793
10411596,1908,1813,2227,2323,1745188670107820793
10412596,1915,1849,2244,2452,1745188670107820793
10413596,1924,1889,2261,2496,1745188670107820793
10414596,1938,1948,2267,2460,1745188670107820793
10415596,1947,2011,2258,2410,1745188670107820793
10416597,1946,2054,2253,2400,1745188670107820793
10417597,1940,2102,2259,2429,1745188670107820793
10418598,1922,2153,2279,2474,1745188670107820793
10419598,1900,2209,2294,2514,1745188670107820793
10420597,1874,2261,2300,2558,1745188670107820793
10421597,1873,2313,2294,2600,1745188670107820793
10422597,1838,2373,2280,2645,1745188670107820793
10423597,1830,2413,2265,2670,1745188670107820793
10424597,1826,2460,2254,2659,1745188670107820793
10425597,1828,2517,2242,2608,1745188670107820793
10426597,1837,2556,2224,2559,1745188670107820793
10427597,1849,2560,2200,2521,1745188670107820793
10428598,1862,2564,2194,2489,1745188670107820793
10429598,1880,2572,2168,2474,1745188670107820793
10430598,1897,2600,2158,2496,1745188670107820793
10431598,1916,2653,2156,2574,1745188670107820793
10432598,1939,2717,2164,2696,1745188670107820793
10433598,1965,2806,2184,2802,1745188670107820793
10434598,1991,2883,2203,2881,1745188670107820793
10435598,2024,2923,2209,2910,1745188670107820793
10436598,2061,2931,2196,2869,1745188670107820793
10437598,2100,2925,2171,2778,1745188670107820793
10438598,2139,2925,2144,2683,1745188670107820793
10439598,2181,2897,2105,2634,1745188670107820793
10440599,2211,2840,2101,2649,1745188670107820793
10441599,2231,2813,2100,2680,1745188670107820793
10442599,2244,2862,2104,2680,1745188670107820793
10443599,2258,2948,2100,2571,1745188670107820793
10444599,2258,3017,2081,2448,1745188670107820793
10445599,2267,3061,2052,2326,1745188670107820793
10446599,2277,3114,2017,2294,1745188670107820793
10447599,2291,3169,1988,2386,1745188670176490895
10448599,2312,3209,1984,2546,1745188670176490895
10449599,2330,3200,2009,2689,1745188670176490895
10450599,2350,3202,2054,2778,1745188670176490895
10451599,2369,3282,2091,2810,1745188670176490895
10452600,2386,3408,2114,2811,1745188670176490895
10453600,2393,3515,2127,2789,1745188670176490895
10454600,2403,3569,2130,2719,1745188670176490895
10455601,2410,3569,2122,2601,1745188670176490895
10456601,2420,3532,2102,2472,1745188670176490895
10457600,2437,3489,2080,2364,1745188670176490895
10458602,2453,3466,2057,2334,1745188670176490895
10459600,2472,3436,2033,2374,1745188670176490895
10460600,2484,3379,2014,2425,1745188670176490895
10461600,2491,3294,1996,2451,1745188670176490895
10462600,2499,3208,1974,2447,1745188670176490895
10463600,2501,3162,1953,2395,1745188670176490895
10464601,2499,3133,1931,2301,1745188670176490895
10465601,2494,3100,1910,2205,1745188670176490895
10466601,2485,3065,1894,2144,1745188670176490895
10467601,2476,3042,1885,2161,1745188670176490895
10468601,2471,3045,1886,2236,1745188670176490895
10469601,2468,3057,1898,2314,1745188670176490895
10470601,2466,3057,1913,2336,1745188670176490895
10471601,2466,3052,1929,2281,1745188670176490895
10472601,2466,3049,1952,2192,1745188670176490895
10473601,2469,3037,1969,2098,1745188670176490895
10474601,2476,3010,1979,2032,1745188670176490895
10475601,2483,2968,1984,2013,1745188670176490895
10476602,2496,2906,1988,1998,1745188670176490895
10477602,2506,2834,1978,1952,1745188670176490895
10478602,2515,2742,1977,1848,1745188670176490895
10479602,2519,2670,1960,1750,1745188670176490895
10480602,2516,2633,1949,1739,1745188670176490895
10481602,2515,2605,1957,1854,1745188670176490895
10482602,2511,2559,1990,2038,1745188670176490895
10483602,2506,2508,2011,2208,1745188670176490895
10484602,2495,2449,2021,2307,1745188670176490895
10485602,2485,2400,2019,2337,1745188670176490895
10486602,2474,2365,2008,2317,1745188670176490895
10487604,2464,2342,1989,2260,1745188670176490895
10488603,2453,2331,1974,2177,1745188670176490895
10489603,2444,2317,1961,2070,1745188670176490895
10490603,2437,2306,1948,1950,1745188670176490895
10491603,2430,2285,1934,1841,1745188670176490895
10492603,2427,2267,1920,1765,1745188670176490895
10493603,2424,2264,1900,1737,1745188670176490895
10494603,2420,2260,1883,1761,1745188670176490895
10495603,2412,2254,1867,1833,1745188670176490895
10496603,2405,2248,1854,1902,1745188670176490895
10497603,2400,2241,1846,1924,1745188670176490895
10498603,2392,2236,1846,1874,1745188670176490895
10499603,2382,2230,1848,1792,1745188670176490895
10500604,2372,2211,1852,1744,1745188670176490895
10501604,2360,2185,1864,1777,1745188670176490895
10502604,2348,2160,1890,1895,1745188670176490895
10503604,2332,2162,1917,2035,1745188670176490895
10504604,2316,2173,1936,2132,1745188670176490895
10505604,2298,2141,1932,2146,1745188670224810193
10506604,2281,2064,1909,2088,1745188670224810193
10507604,2267,1971,1878,1979,1745188670224810193
10508604,2252,1932,1846,1882,1745188670224810193
10509604,2230,1992,1829,1869,1745188670224810193
10510604,2214,2116,1840,1997,1745188670224810193
10511604,2206,2220,1881,2245,1745188670224810193
10512605,2206,2272,1937,2508,1745188670224810193
10513605,2211,2279,1988,2699,1745188670224810193
10514605,2220,2267,2026,2805,1745188670224810193
10515605,2232,2271,2051,2832,1745188670224810193
10516605,2241,2285,2060,2799,1745188670224810193
10517605,2245,2285,2061,2723,1745188670224810193
10518605,2249,2267,2056,2616,1745188670224810193
10519605,2251,2234,2044,2501,1745188670224810193
10520605,2253,2200,2036,2385,1745188670224810193
10521605,2257,2180,2032,2278,1745188670224810193
10522605,2260,2165,2028,2174,1745188670224810193
10523605,2260,2146,2025,2089,1745188670224810193
10524606,2260,2125,2018,2026,1745188670224810193
10525606,2252,2108,2005,1979,1745188670224810193
10526606,2238,2082,1987,1946,1745188670224810193
10527606,2220,2027,1966,1928,1745188670224810193
10528606,2204,1963,1944,1924,1745188670224810193
10529606,2186,1890,1928,1944,1745188670224810193
10530606,2171,1869,1925,1983,1745188670224810193
10531606,2153,1883,1940,2018,1745188670224810193
10532606,2133,1920,1958,2014,1745188670224810193
10533606,2117,2018,1973,1988,1745188670224810193
10534606,2100,2116,1985,1973,1745188670224810193
10535607,2075,2190,1989,1996,1745188670224810193
10536607,2052,2236,1988,2042,1745188670224810193
10537607,2030,2237,1985,2057,1745188670224810193
10538607,2017,2219,1971,1999,1745188670224810193
10539607,2002,2177,1954,1937,1745188670224810193
10540607,1989,2129,1944,1884,1745188670224810193
10541607,1994,2085,1947,1866,1745188670224810193
10542607,1968,2058,1968,1834,1745188670224810193
10543607,1957,2031,1986,1757,1745188670224810193
10544607,1946,1999,1999,1668,1745188670224810193
10545607,1934,1972,2009,1637,1745188670224810193
10546607,1900,1936,2025,1637,1745188670224810193
10547607,1912,1912,2043,1693,1745188670224810193
10548608,1902,1909,2068,1778,1745188670224810193
10549608,1893,1948,2094,1892,1745188670224810193
10550608,1888,2000,2117,2021,1745188670224810193
10551608,1880,1982,2129,2105,1745188670224810193
10552608,1876,1960,2123,2107,1745188670224810193
10553608,1873,1920,2102,2053,1745188670224810193
10554608,1867,1867,2076,1983,1745188670224810193
10555608,1859,1813,2049,1909,1745188670224810193
10556608,1849,1758,2025,1818,1745188670224810193
10557608,1834,1697,2006,1728,1745188670224810193
10558608,1824,1643,1999,1611,1745188670224810193
10559608,1816,1598,1995,1510,1745188670224810193
10560609,1816,1561,1995,1444,1745188670224810193
10561609,1814,1518,2002,1447,1745188670224810193
10562609,1808,1444,2010,1504,1745188670224810193
10563609,1798,1342,2014,1571,1745188670285154746
10564609,1785,1273,2016,1628,1745188670285154746
10565609,1771,1270,2014,1659,1745188670285154746
10566609,1757,1284,2021,1677,1745188670285154746
10567609,1742,1284,2043,1696,1745188670285154746
10568609,1731,1275,2078,1728,1745188670285154746
10569609,1723,1263,2116,1771,1745188670285154746
10570609,1720,1248,2147,1808,1745188670285154746
10571609,1718,1219,2159,1778,1745188670285154746
10572610,1721,1173,2152,1655,1745188670285154746
10573610,1728,1121,2133,1500,1745188670285154746
10574610,1736,1060,2113,1366,1745188670285154746
10575610,1743,1002,2104,1316,1745188670285154746
10576610,1754,1019,2120,1371,1745188670285154746
10577610,1758,1112,2158,1484,1745188670285154746
10578610,1753,1187,2201,1586,1745188670285154746
10579610,1741,1215,2229,1658,1745188670285154746
10580610,1731,1208,2241,1676,1745188670285154746
10581610,1726,1179,2240,1653,1745188670285154746
10582610,1728,1145,2225,1617,1745188670285154746
10583610,1732,1116,2203,1596,1745188670285154746
10584611,1737,1098,2177,1589,1745188670285154746
10585611,1739,1099,2152,1576,1745188670285154746
10586611,1745,1119,2126,1542,1745188670285154746
10587611,1747,1141,2104,1514,1745188670285154746
10588611,1750,1155,2085,1493,1745188670285154746
10589611,1747,1145,2076,1516,1745188670285154746
10590611,1738,1132,2077,1593,1745188670285154746
10591613,1730,1160,2084,1698,1745188670285154746
10592611,1730,1206,2097,1745,1745188670285154746
10593611,1731,1253,2109,1702,1745188670285154746
10594612,1741,1290,2114,1629,1745188670285154746
10595611,1733,1293,2134,1588,1745188670285154746
10596612,1739,1292,2148,1605,1745188670285154746
10597612,1746,1291,2159,1653,1745188670285154746
10598612,1756,1297,2168,1709,1745188670285154746
10599612,1765,1304,2162,1774,1745188670285154746
10600612,1775,1326,2183,1856,1745188670285154746
10601612,1782,1334,2180,1956,1745188670285154746
10602612,1795,1361,2185,2049,1745188670285154746
10603612,1801,1393,2191,2102,1745188670285154746
10604612,1802,1432,2192,2109,1745188670285154746
10605612,1806,1470,2188,2091,1745188670285154746
10606612,1808,1513,2184,2088,1745188670285154746
10607612,1805,1556,2173,2100,1745188670285154746
10608613,1803,1616,2162,2108,1745188670285154746
10609613,1802,1676,2146,2108,1745188670285154746
10610613,1801,1731,2136,2114,1745188670285154746
10611613,1805,1768,2130,2136,1745188670285154746
10612613,1816,1782,2124,2160,1745188670285154746
10613613,1835,1781,2113,2149,1745188670285154746
10614613,1858,1777,2094,2093,1745188670285154746
10615613,1883,1806,2069,2017,1745188670285154746
10616613,1907,1845,2044,1964,1745188670285154746
10617613,1933,1871,2033,1977,1745188670285154746
10618613,1955,1887,2051,2049,1745188670285154746
10619613,1977,1902,2085,2128,1745188670285154746
10620614,1995,1920,2124,2171,1745188670285154746
10621614,2011,1938,2149,2188,1745188670343606608
10622614,2025,1972,2158,2190,1745188670343606608
10623614,2036,2006,2153,2176,1745188670343606608
10624614,2051,2021,2138,2149,1745188670343606608
10625614,2053,2029,2115,2093,1745188670343606608
10626614,2045,2034,2093,2016,1745188670343606608
10627614,2030,2037,2074,1963,1745188670343606608
10628614,2010,2052,2052,1967,1745188670343606608
10629615,1995,2090,2032,2021,1745188670343606608
10630614,1978,2156,2025,2078,1745188670343606608
10631614,1966,2224,2020,2094,1745188670343606608
10632615,1958,2273,2014,2064,1745188670343606608
10633615,1952,2298,2012,2050,1745188670343606608
10634615,1949,2304,2021,2126,1745188670343606608
10635615,1947,2287,2043,2270,1745188670343606608
10636615,1940,2262,2073,2416,1745188670343606608
10637615,1930,2251,2092,2528,1745188670343606608
10638615,1921,2259,2112,2585,1745188670343606608
10639615,1909,2306,2117,2611,1745188670343606608
10640615,1899,2336,2114,2606,1745188670343606608
10641615,1888,2331,2102,2572,1745188670343606608
10642615,1874,2298,2085,2521,1745188670343606608
10643615,1862,2254,2064,2440,1745188670343606608
10644616,1849,2225,2034,2337,1745188670343606608
10645616,1837,2237,2003,2230,1745188670343606608
10646616,1822,2297,1970,2140,1745188670343606608
10647616,1804,2353,1938,2082,1745188670343606608
10648616,1785,2387,1913,2077,1745188670343606608
10649616,1762,2408,1897,2129,1745188670343606608
10650616,1738,2418,1888,2234,1745188670343606608
10651616,1717,2421,1880,2303,1745188670343606608
10652617,1710,2411,1875,2329,1745188670343606608
10653616,1712,2403,1864,2344,1745188670343606608
10654616,1736,2428,1884,2361,1745188670343606608
10655616,1748,2477,1891,2420,1745188670343606608
10656617,1777,2499,1913,2492,1745188670343606608
10657617,1810,2499,1952,2561,1745188670343606608
10658617,1840,2517,1987,2605,1745188670343606608
10659617,1861,2548,2008,2610,1745188670343606608
10660617,1878,2588,2015,2573,1745188670343606608
10661617,1883,2594,2002,2500,1745188670343606608
10662617,1880,2577,1981,2389,1745188670343606608
10663617,1878,2560,1963,2297,1745188670343606608
10664617,1878,2558,1952,2261,1745188670343606608
10665617,1884,2556,1946,2300,1745188670343606608
10666617,1893,2559,1943,2384,1745188670343606608
10667617,1908,2574,1938,2458,1745188670343606608
10668618,1924,2593,1929,2486,1745188670343606608
10669618,1941,2622,1912,2497,1745188670343606608
10670618,1952,2664,1896,2529,1745188670343606608
10671618,1963,2714,1893,2571,1745188670343606608
10672618,1977,2770,1901,2613,1745188670343606608
10673618,1992,2797,1915,2610,1745188670343606608
10674618,2003,2784,1925,2559,1745188670343606608
10675618,2008,2750,1930,2478,1745188670343606608
10676618,2008,2715,1926,2401,1745188670343606608
10677618,2004,2690,1916,2353,1745188670343606608
10678618,2003,2666,1904,2341,1745188670343606608
10679618,2006,2637,1896,2357,1745188670405172868
10680619,2010,2620,1891,2361,1745188670405172868
10681619,2010,2620,1888,2329,1745188670405172868
10682619,2002,2627,1882,2282,1745188670405172868
10683619,1989,2635,1878,2268,1745188670405172868
10684619,1979,2642,1880,2321,1745188670405172868
10685619,1974,2649,1889,2408,1745188670405172868
10686619,1976,2657,1892,2472,1745188670405172868
10687619,1982,2663,1907,2490,1745188670405172868
10688619,1994,2672,1910,2498,1745188670405172868
10689619,2008,2685,1912,2501,1745188670405172868
10690619,2025,2705,1907,2484,1745188670405172868
10691619,2048,2715,1897,2444,1745188670405172868
10692620,2074,2713,1885,2380,1745188670405172868
10693620,2108,2699,1873,2323,1745188670405172868
10694620,2153,2680,1864,2321,1745188670405172868
10695620,2209,2653,1860,2378,1745188670405172868
10696620,2268,2618,1859,2470,1745188670405172868
10697620,2326,2577,1857,2534,1745188670405172868
10698620,2385,2542,1857,2557,1745188670405172868
10699620,2436,2508,1864,2537,1745188670405172868
10700620,2478,2477,1879,2510,1745188670405172868
10701620,2505,2448,1893,2485,1745188670405172868
10702620,2513,2414,1900,2462,1745188670405172868
10703620,2514,2387,1901,2442,1745188670405172868
10704621,2508,2368,1900,2411,1745188670405172868
10705621,2500,2361,1901,2370,1745188670405172868
10706621,2485,2360,1899,2328,1745188670405172868
10707621,2466,2364,1892,2301,1745188670405172868
10708621,2448,2366,1883,2304,1745188670405172868
10709621,2422,2355,1870,2319,1745188670405172868
10710621,2401,2329,1851,2317,1745188670405172868
10711621,2391,2308,1832,2305,1745188670405172868
10712621,2397,2320,1822,2291,1745188670405172868
10713621,2393,2369,1792,2293,1745188670405172868
10714621,2363,2442,1780,2309,1745188670405172868
10715621,2350,2478,1777,2317,1745188670405172868
10716622,2339,2488,1786,2348,1745188670405172868
10717622,2327,2482,1801,2372,1745188670405172868
10718622,2320,2459,1821,2387,1745188670405172868
10719622,2306,2455,1841,2401,1745188670405172868
10720622,2297,2440,1851,2393,1745188670405172868
10721622,2288,2417,1853,2304,1745188670405172868
10722622,2277,2403,1844,2142,1745188670405172868
10723622,2266,2387,1827,1945,1745188670405172868
10724622,2249,2373,1812,1805,1745188670405172868
10725622,2228,2358,1808,1781,1745188670405172868
10726622,2203,2339,1809,1887,1745188670405172868
10727622,2174,2332,1817,2077,1745188670405172868
10728623,2141,2373,1837,2253,1745188670405172868
10729623,2108,2418,1866,2335,1745188670405172868
10730623,2076,2440,1888,2294,1745188670405172868
10731623,2036,2438,1892,2157,1745188670405172868
10732623,2001,2415,1883,1994,1745188670405172868
10733623,1977,2384,1873,1880,1745188670405172868
10734623,1972,2346,1867,1859,1745188670405172868
10735623,1984,2329,1874,1921,1745188670405172868
10736623,2005,2357,1897,2018,1745188670405172868
10737623,2030,2386,1928,2092,1745188670463501086
10738623,2058,2354,1958,2109,1745188670463501086
10739623,2078,2280,1978,2080,1745188670463501086
10740624,2097,2193,1990,2030,1745188670463501086
10741624,2114,2102,1998,1982,1745188670463501086
10742624,2137,2013,2011,1943,1745188670463501086
10743624,2162,1957,2024,1918,1745188670463501086
10744624,2190,1928,2034,1892,1745188670463501086
10745624,2217,1899,2040,1866,1745188670463501086
10746624,2241,1866,2037,1850,1745188670463501086
10747624,2264,1832,2034,1842,1745188670463501086
10748624,2285,1793,2028,1833,1745188670463501086
10749624,2309,1742,2022,1813,1745188670463501086
10750624,2331,1682,2016,1779,1745188670463501086
10751624,2350,1622,2011,1732,1745188670463501086
10752625,2373,1595,2008,1682,1745188670463501086
10753625,2392,1589,2006,1633,1745188670463501086
10754625,2405,1586,2003,1570,1745188670463501086
10755625,2413,1570,2000,1475,1745188670463501086
10756625,2417,1540,1996,1334,1745188670463501086
10757625,2421,1514,1990,1189,1745188670463501086
10758625,2422,1481,1986,1089,1745188670463501086
10759625,2425,1454,1989,1077,1745188670463501086
10760625,2427,1427,2004,1118,1745188670463501086
10761625,2430,1392,2020,1121,1745188670463501086
10762625,2430,1354,2029,1077,1745188670463501086
10763625,2427,1322,2030,1064,1745188670463501086
10764626,2419,1299,2026,1130,1745188670463501086
10765626,2408,1284,2024,1273,1745188670463501086
10766626,2394,1278,2029,1481,1745188670463501086
10767626,2380,1281,2056,1681,1745188670463501086
10768626,2370,1290,2083,1825,1745188670463501086
10769626,2362,1299,2122,1877,1745188670463501086
10770627,2348,1307,2130,1858,1745188670463501086
10771626,2339,1306,2147,1820,1745188670463501086
10772626,2330,1302,2164,1778,1745188670463501086
10773626,2333,1291,2179,1721,1745188670463501086
10774626,2336,1270,2200,1672,1745188670463501086
10775626,2339,1241,2225,1620,1745188670463501086
10776627,2352,1212,2256,1589,1745188670463501086
10777627,2357,1192,2276,1573,1745188670463501086
10778627,2356,1177,2291,1570,1745188670463501086
10779627,2347,1145,2291,1569,1745188670463501086
10780627,2336,1098,2287,1576,1745188670463501086
10781627,2328,1061,2281,1579,1745188670463501086
10782627,2316,1065,2275,1557,1745188670463501086
10783627,2307,1098,2266,1522,1745188670463501086
10784627,2289,1122,2258,1485,1745188670463501086
10785627,2286,1134,2249,1462,1745188670463501086
10786627,2272,1141,2240,1459,1745188670463501086
10787627,2254,1153,2237,1466,1745188670463501086
10788628,2234,1171,2239,1486,1745188670463501086
10789628,2216,1195,2243,1529,1745188670463501086
10790628,2193,1221,2255,1579,1745188670463501086
10791628,2171,1249,2268,1630,1745188670463501086
10792628,2149,1276,2282,1655,1745188670463501086
10793628,2129,1297,2291,1656,1745188670463501086
10794628,2109,1314,2292,1646,1745188670463501086
10795628,2094,1328,2288,1650,1745188670517686216
10796628,2078,1338,2284,1668,1745188670517686216
10797628,2060,1348,2281,1687,1745188670517686216
10798628,2040,1358,2274,1683,1745188670517686216
10799628,2022,1372,2262,1624,1745188670517686216
10800629,2004,1377,2246,1526,1745188670517686216
10801629,1988,1378,2232,1430,1745188670517686216
10802629,1976,1378,2217,1395,1745188670517686216
10803629,1964,1387,2212,1443,1745188670517686216
10804629,1953,1408,2220,1547,1745188670517686216
10805629,1937,1432,2235,1685,1745188670517686216
10806629,1913,1452,2249,1818,1745188670517686216
10807629,1886,1467,2266,1941,1745188670517686216
10808629,1857,1485,2290,2048,1745188670517686216
10809629,1830,1529,2317,2136,1745188670517686216
10810631,1805,1578,2338,2207,1745188670517686216
10811630,1783,1618,2353,2248,1745188670517686216
10812630,1745,1645,2357,2253,1745188670517686216
10813630,1713,1696,2352,2233,1745188670517686216
10814630,1682,1754,2344,2206,1745188670517686216
10815630,1652,1788,2333,2178,1745188670517686216
10816630,1627,1796,2321,2146,1745188670517686216
10817630,1608,1780,2307,2115,1745188670517686216
10818630,1593,1753,2298,2090,1745188670517686216
10819630,1582,1735,2290,2075,1745188670517686216
10820630,1573,1741,2284,2065,1745188670517686216
10821630,1569,1771,2278,2053,1745188670517686216
10822630,1566,1822,2270,2021,1745188670517686216
10823630,1565,1875,2254,1978,1745188670517686216
10824631,1564,1924,2233,1937,1745188670517686216
10825631,1563,1969,2205,1902,1745188670517686216
10826631,1560,2018,2172,1868,1745188670517686216
10827631,1560,2070,2136,1795,1745188670517686216
10828631,1555,2122,2100,1682,1745188670517686216
10829631,1556,2171,2072,1627,1745188670517686216
10830631,1562,2220,2066,1716,1745188670517686216
10831631,1569,2270,2081,1925,1745188670517686216
10832631,1582,2315,2108,2163,1745188670517686216
10833631,1587,2350,2138,2347,1745188670517686216
10834631,1621,2390,2164,2437,1745188670517686216
10835631,1647,2416,2182,2403,1745188670517686216
10836632,1675,2430,2169,2297,1745188670517686216
10837632,1700,2447,2158,2191,1745188670517686216
10838632,1726,2444,2153,2162,1745188670517686216
10839632,1749,2458,2162,2265,1745188670517686216
10840632,1770,2466,2204,2454,1745188670517686216
10841632,1793,2476,2258,2613,1745188670517686216
10842632,1817,2485,2304,2723,1745188670517686216
10843632,1840,2496,2328,2774,1745188670517686216
10844632,1859,2507,2328,2790,1745188670517686216
10845632,1874,2521,2308,2781,1745188670517686216
10846632,1887,2540,2277,2757,1745188670517686216
10847632,1898,2559,2246,2732,1745188670517686216
10848633,1906,2582,2221,2708,1745188670517686216
10849633,1913,2612,2200,2689,1745188670517686216
10850633,1918,2642,2184,2669,1745188670517686216
10851633,1925,2670,2170,2650,1745188670517686216
10852633,1933,2690,2157,2618,1745188670517686216
10853633,1945,2699,2142,2559,1745188670582537915
10854633,1959,2700,2123,2474,1745188670582537915
10855633,1973,2694,2098,2377,1745188670582537915
10856633,1989,2677,2065,2252,1745188670582537915
10857633,2003,2657,2024,2098,1745188670582537915
10858633,2019,2632,1982,1951,1745188670582537915
10859633,2034,2604,1948,1885,1745188670582537915
10860634,2052,2581,1928,1976,1745188670582537915
10861634,2067,2568,1930,2217,1745188670582537915
10862634,2082,2563,1952,2501,1745188670582537915
10863634,2096,2561,1981,2736,1745188670582537915
10864634,2108,2561,2001,2872,1745188670582537915
10865634,2117,2562,2002,2868,1745188670582537915
10866634,2124,2563,1993,2745,1745188670582537915
10867634,2134,2570,1985,2586,1745188670582537915
10868634,2126,2580,1980,2488,1745188670582537915
10869634,2125,2594,1989,2453,1745188670582537915
10870634,2127,2608,2012,2450,1745188670582537915
10871634,2131,2621,2036,2440,1745188670582537915
10872635,2137,2629,2060,2401,1745188670582537915
10873635,2145,2629,2081,2316,1745188670582537915
10874635,2154,2621,2089,2187,1745188670582537915
10875635,2160,2610,2084,2027,1745188670582537915
10876635,2170,2590,2066,1876,1745188670582537915
10877635,2180,2563,2037,1797,1745188670582537915
10878635,2192,2548,2002,1838,1745188670582537915
10879635,2200,2531,1976,1966,1745188670582537915
10880635,2209,2515,1951,2096,1745188670582537915
10881635,2219,2497,1931,2184,1745188670582537915
10882635,2230,2484,1921,2237,1745188670582537915
10883635,2242,2479,1926,2290,1745188670582537915
10884636,2251,2488,1950,2356,1745188670582537915
10885636,2258,2508,1974,2416,1745188670582537915
10886636,2259,2533,1997,2402,1745188670582537915
10887636,2277,2539,1964,2354,1745188670582537915
10888636,2255,2576,1938,2285,1745188670582537915
10889636,2251,2601,1898,2266,1745188670582537915
10890636,2246,2625,1852,2286,1745188670582537915
10891636,2240,2644,1800,2312,1745188670582537915
10892636,2234,2657,1778,2319,1745188670582537915
10893636,2226,2670,1768,2307,1745188670582537915
10894636,2221,2673,1778,2299,1745188670582537915
10895636,2219,2661,1810,2332,1745188670582537915
10896637,2221,2668,1864,2387,1745188670582537915
10897637,2225,2664,1924,2427,1745188670582537915
10898637,2230,2656,1975,2454,1745188670582537915
10899637,2235,2644,2008,2482,1745188670582537915
10900637,2236,2635,2026,2498,1745188670582537915
10901637,2234,2624,2037,2480,1745188670582537915
10902637,2232,2624,2044,2435,1745188670582537915
10903637,2230,2626,2056,2398,1745188670582537915
10904637,2228,2638,2066,2378,1745188670582537915
10905637,2229,2652,2077,2348,1745188670582537915
10906637,2227,2675,2082,2306,1745188670582537915
10907637,2223,2698,2077,2264,1745188670582537915
10908638,2217,2720,2064,2238,1745188670582537915
10909638,2207,2744,2044,2226,1745188670582537915
10910638,2193,2766,2024,2192,1745188670582537915
10911638,2172,2786,1998,2108,1745188670634049111
10912638,2149,2803,1960,1994,1745188670634049111
10913638,2131,2810,1908,1874,1745188670634049111
10914638,2120,2811,1851,1790,1745188670634049111
10915638,2117,2808,1801,1790,1745188670634049111
10916638,2123,2808,1764,1877,1745188670634049111
10917638,2129,2806,1744,2019,1745188670634049111
10918638,2134,2812,1738,2166,1745188670634049111
10919638,2141,2817,1741,2252,1745188670634049111
10920639,2158,2820,1737,2294,1745188670634049111
10921639,2186,2820,1730,2358,1745188670634049111
10922639,2220,2811,1720,2458,1745188670634049111
10923639,2250,2797,1724,2585,1745188670634049111
10924639,2266,2785,1757,2741,1745188670634049111
10925639,2268,2778,1808,2868,1745188670634049111
10926639,2261,2769,1851,2945,1745188670634049111
10927639,2255,2747,1870,2957,1745188670634049111
10928639,2251,2728,1864,2902,1745188670634049111
10929639,2249,2700,1847,2813,1745188670634049111
10930639,2248,2670,1836,2691,1745188670634049111
10931639,2240,2630,1847,2531,1745188670634049111
10932640,2226,2584,1877,2346,1745188670634049111
10933640,2211,2536,1924,2178,1745188670634049111
10934640,2203,2471,1979,2030,1745188670634049111
10935640,2204,2401,2028,1922,1745188670634049111
10936640,2220,2325,2061,1845,1745188670634049111
10937640,2249,2244,2057,1784,1745188670634049111
