timestamp,emg0,emg1,emg2,emg3,pkt_time_ns
6213421,1965,2056,2130,2027,1745153634323216682
6214418,1954,2058,2131,2028,1745153634323216682
6215418,1955,2060,2126,2028,1745153634323216682
6216418,1963,2066,2110,2030,1745153634323216682
6217418,1973,2072,2092,2039,1745153634323216682
6218418,1986,2074,2074,2052,1745153634323216682
6219418,2004,2077,2050,2070,1745153634323216682
6220418,2027,2081,2028,2085,1745153634323216682
6221419,2057,2082,2004,2100,1745153634323216682
6222419,2075,2084,1987,2107,1745153634323216682
6223419,2091,2080,1977,2106,1745153634323216682
6224419,2102,2077,1974,2101,1745153634323216682
6225419,2105,2074,1977,2094,1745153634323216682
6226419,2104,2070,1986,2086,1745153634323216682
6227419,2096,2066,1996,2077,1745153634323216682
6228419,2085,2060,2011,2066,1745153634323216682
6229419,2067,2051,2032,2056,1745153634323216682
6230419,2044,2041,2057,2038,1745153634323216682
6231419,2020,2033,2082,2024,1745153634323216682
6232419,1996,2028,2105,2011,1745153634323216682
6233420,1979,2027,2124,2002,1745153634323216682
6234420,1968,2029,2136,2000,1745153634323216682
6235420,1965,2034,2149,2004,1745153634323216682
6236420,1970,2039,2162,2010,1745153634323216682
6237420,1978,2040,2171,2014,1745153634323216682
6238420,1990,2033,2177,2019,1745153634323216682
6239420,2010,2026,2168,2025,1745153634323216682
6240420,2035,2021,2147,2029,1745153634323216682
6241420,2063,2021,2116,2036,1745153634323216682
6242420,2085,2026,2088,2043,1745153634323216682
6243420,2105,2034,2065,2052,1745153634323216682
6244420,2115,2049,2050,2058,1745153634323216682
6245421,2120,2064,2039,2061,1745153634323216682
6246421,2117,2078,2030,2062,1745153634323216682
6247421,2109,2088,2022,2064,1745153634323216682
6248421,2097,2091,2013,2060,1745153634323216682
6249421,2081,2088,2009,2052,1745153634323216682
6250421,2059,2081,2008,2043,1745153634323216682
6251421,2033,2074,2009,2033,1745153634323216682
6252421,2012,2070,2016,2028,1745153634323216682
6253421,1997,2067,2019,2024,1745153634323216682
6254421,1989,2066,2020,2021,1745153634323216682
6255421,1987,2066,2019,2021,1745153634323216682
6256422,1995,2068,2016,2022,1745153634323216682
6257422,2003,2070,2012,2026,1745153634323216682
6258422,2016,2076,2003,2031,1745153634323216682
6259422,2035,2084,1992,2040,1745153634323216682
6260422,2060,2092,1977,2051,1745153634323216682
6261422,2084,2098,1963,2064,1745153634323216682
6262422,2107,2101,1953,2073,1745153634323216682
6263422,2124,2099,1949,2080,1745153634323216682
6264422,2136,2095,1952,2086,1745153634323216682
6265422,2137,2089,1960,2093,1745153634323216682
6266422,2134,2080,1972,2106,1745153634323216682
6267422,2128,2072,1986,2108,1745153634323216682
6268423,2116,2061,2007,2110,1745153634323216682
6269423,2098,2050,2034,2112,1745153634323216682
6270423,2076,2036,2065,2109,1745153634323216682
6271423,2051,2027,2090,2102,1745153634383468839
6272423,2026,2020,2112,2097,1745153634383468839
6273423,2008,2019,2121,2085,1745153634383468839
6274423,1997,2021,2122,2073,1745153634383468839
6275423,1994,2025,2117,2060,1745153634383468839
6276423,1997,2033,2107,2050,1745153634383468839
6277423,2005,2041,2097,2038,1745153634383468839
6278428,2016,2054,2084,2037,1745153634383468839
6279423,2035,2067,2065,2038,1745153634383468839
6280424,2061,2077,2041,2038,1745153634383468839
6281425,2087,2086,2017,2040,1745153634383468839
6282424,2110,2088,2009,2033,1745153634383468839
6283424,2158,2123,2014,2081,1745153634383468839
6284424,2163,2106,2000,2078,1745153634383468839
6285424,2154,2089,1990,2076,1745153634383468839
6286424,2139,2077,1986,2040,1745153634383468839
6287424,2080,2028,1961,2050,1745153634383468839
6288424,2082,2028,1976,2057,1745153634383468839
6289424,2069,2020,2001,2056,1745153634383468839
6290424,2049,2016,2031,2042,1745153634383468839
6291424,2017,2010,2056,2038,1745153634383468839
6292424,2006,2010,2084,2028,1745153634383468839
6293425,1993,2015,2100,2021,1745153634383468839
6294425,1986,2022,2109,2018,1745153634383468839
6295425,1984,2030,2112,2020,1745153634383468839
6296425,1993,2037,2107,2022,1745153634383468839
6297426,2003,2049,2099,2022,1745153634383468839
6298425,2016,2056,2084,2028,1745153634383468839
6299425,2033,2064,2064,2035,1745153634383468839
6300425,2059,2073,2034,2040,1745153634383468839
6301425,2084,2080,2010,2051,1745153634383468839
6302425,2108,2082,1986,2057,1745153634383468839
6303425,2124,2080,1970,2062,1745153634383468839
6304425,2134,2077,1964,2062,1745153634383468839
6305426,2140,2068,1965,2060,1745153634383468839
6306426,2141,2059,1972,2054,1745153634383468839
6307426,2136,2053,1985,2048,1745153634383468839
6308426,2126,2041,2002,2038,1745153634383468839
6309426,2112,2036,2024,2028,1745153634383468839
6310426,2089,2027,2050,2020,1745153634383468839
6311426,2065,2024,2074,2017,1745153634383468839
6312426,2043,2018,2093,2017,1745153634383468839
6313426,2028,2019,2106,2021,1745153634383468839
6314426,2019,2023,2113,2025,1745153634383468839
6315426,2016,2027,2112,2029,1745153634383468839
6316426,2020,2035,2109,2032,1745153634383468839
6317427,2027,2040,2101,2040,1745153634383468839
6318427,2040,2048,2092,2049,1745153634383468839
6319427,2057,2056,2082,2057,1745153634383468839
6320427,2076,2064,2078,2063,1745153634383468839
6321427,2096,2072,2074,2069,1745153634383468839
6322427,2113,2074,2066,2072,1745153634383468839
6323427,2130,2073,2051,2074,1745153634383468839
6324427,2139,2064,2029,2075,1745153634383468839
6325427,2144,2043,2002,2074,1745153634383468839
6326427,2142,2026,1970,2070,1745153634383468839
6327427,2138,2008,1946,2065,1745153634383468839
6328427,2129,1995,1932,2058,1745153634383468839
6329428,2113,1989,1933,2052,1745153634435768414
6330428,2089,1988,1949,2041,1745153634435768414
6331428,2064,2000,1970,2029,1745153634435768414
6332428,2038,2017,1993,2022,1745153634435768414
6333428,2021,2037,2014,2014,1745153634435768414
6334428,2012,2061,2029,2010,1745153634435768414
6335428,2007,2077,2050,2011,1745153634435768414
6336428,2010,2089,2068,2016,1745153634435768414
6337428,2018,2101,2077,2026,1745153634435768414
6338428,2034,2103,2083,2042,1745153634435768414
6339428,2052,2108,2075,2094,1745153634435768414
6340430,2110,2144,2081,2099,1745153634435768414
6341429,2124,2131,2038,2105,1745153634435768414
6342429,2132,2116,2000,2106,1745153634435768414
6343429,2137,2072,1937,2112,1745153634435768414
6344429,2144,2097,1968,2108,1745153634435768414
6345429,2139,2083,1970,2096,1745153634435768414
6346429,2127,2072,1987,2096,1745153634435768414
6347429,2110,2032,1972,2050,1745153634435768414
6348429,2056,2021,2004,2060,1745153634435768414
6349429,2042,2019,2028,2056,1745153634435768414
6350429,2019,2017,2042,2049,1745153634435768414
6351429,1995,2009,2049,2029,1745153634435768414
6352429,1971,2014,2067,2029,1745153634435768414
6353430,1955,2016,2074,2023,1745153634435768414
6354430,1948,2022,2082,2019,1745153634435768414
6355430,1940,2027,2092,2017,1745153634435768414
6356430,1943,2034,2096,2018,1745153634435768414
6357430,1950,2042,2091,2018,1745153634435768414
6358430,1962,2054,2077,2026,1745153634435768414
6359430,1981,2063,2048,2036,1745153634435768414
6360430,2005,2073,2010,2049,1745153634435768414
6361430,2030,2080,1966,2061,1745153634435768414
6362430,2051,2083,1934,2069,1745153634435768414
6363430,2068,2082,1916,2078,1745153634435768414
6364430,2074,2078,1907,2080,1745153634435768414
6365431,2073,2072,1908,2081,1745153634435768414
6366431,2070,2064,1914,2074,1745153634435768414
6367431,2064,2057,1925,2070,1745153634435768414
6368431,2056,2049,1948,2060,1745153634435768414
6369431,2038,2040,1982,2050,1745153634435768414
6370431,2022,2033,2029,2035,1745153634435768414
6371431,2003,2032,2085,2025,1745153634435768414
6372431,1988,2033,2140,2016,1745153634435768414
6373431,1977,2033,2187,2010,1745153634435768414
6374431,1971,2038,2222,2008,1745153634435768414
6375431,1972,2042,2251,2009,1745153634435768414
6376431,1980,2049,2270,2009,1745153634435768414
6377432,1990,2051,2274,2016,1745153634435768414
6378432,2003,2052,2260,2024,1745153634435768414
6379432,2020,2057,2224,2034,1745153634435768414
6380432,2041,2070,2176,2048,1745153634435768414
6381432,2065,2068,2130,2054,1745153634435768414
6382432,2078,2075,2082,2057,1745153634435768414
6383432,2085,2062,2033,2059,1745153634435768414
6384432,2088,2070,1992,2054,1745153634435768414
6385432,2083,2066,1959,2053,1745153634435768414
6386432,2075,2060,1930,2051,1745153634435768414
6387432,2062,2052,1909,2048,1745153634494331837
6388432,2050,2044,1906,2042,1745153634494331837
6389433,2032,2034,1912,2040,1745153634494331837
6390433,2009,2027,1932,2038,1745153634494331837
6391433,1991,2020,1956,2032,1745153634494331837
6392433,1974,2019,1978,2028,1745153634494331837
6393433,1962,2024,1995,2025,1745153634494331837
6394433,1958,2028,2008,2019,1745153634494331837
6395434,1962,2038,2013,2022,1745153634494331837
6396433,1967,2051,2013,2026,1745153634494331837
6397433,1977,2059,2009,2029,1745153634494331837
6398433,1993,2115,2036,2072,1745153634494331837
6399433,2044,2106,1984,2032,1745153634494331837
6400433,2021,2072,1961,2049,1745153634494331837
6401434,2064,2085,1951,2056,1745153634494331837
6402434,2093,2090,1952,2060,1745153634494331837
6403434,2115,2090,1956,2063,1745153634494331837
6404434,2129,2089,1968,2061,1745153634494331837
6405434,2133,2083,1982,2058,1745153634494331837
6406434,2135,2076,2003,2052,1745153634494331837
6407434,2131,2070,2018,2041,1745153634494331837
6408434,2123,2059,2048,2035,1745153634494331837
6409434,2110,2049,2080,2028,1745153634494331837
6410434,2093,2036,2118,2014,1745153634494331837
6411434,2074,2029,2154,2006,1745153634494331837
6412434,2060,2026,2188,2000,1745153634494331837
6413435,2053,2027,2204,2002,1745153634494331837
6414435,2050,2029,2213,2036,1745153634494331837
6415435,2052,2028,2210,2014,1745153634494331837
6416435,2057,2041,2206,2024,1745153634494331837
6417435,2063,2050,2196,2030,1745153634494331837
6418435,2074,2054,2185,2040,1745153634494331837
6419435,2089,2062,2168,2049,1745153634494331837
6420435,2105,2068,2154,2057,1745153634494331837
6421435,2122,2070,2134,2060,1745153634494331837
6422435,2133,2072,2120,2062,1745153634494331837
6423435,2142,2069,2099,2061,1745153634494331837
6424435,2144,2064,2081,2058,1745153634494331837
6425436,2140,2056,2066,2054,1745153634494331837
6426436,2131,2048,2053,2048,1745153634494331837
6427436,2117,2039,2040,2041,1745153634494331837
6428436,2097,2034,2040,2038,1745153634494331837
6429436,2074,2030,2068,2032,1745153634494331837
6430436,2044,2026,2117,2025,1745153634494331837
6431436,2016,2024,2181,2017,1745153634494331837
6432436,1988,2022,2251,2015,1745153634494331837
6433436,1969,2025,2306,2016,1745153634494331837
6434436,1954,2029,2338,2020,1745153634494331837
6435436,1952,2037,2334,2025,1745153634494331837
6436436,1954,2048,2302,2030,1745153634494331837
6437437,1962,2058,2245,2037,1745153634494331837
6438437,1974,2066,2184,2043,1745153634494331837
6439437,1994,2074,2126,2053,1745153634494331837
6440437,2018,2082,2077,2059,1745153634494331837
6441437,2043,2088,2036,2063,1745153634494331837
6442437,2067,2091,2010,2065,1745153634494331837
6443437,2084,2090,1996,2066,1745153634494331837
6444437,2094,2086,1979,2068,1745153634494331837
6445437,2095,2083,1963,2070,1745153634554688421
6446437,2089,2076,1940,2075,1745153634554688421
6447437,2078,2068,1909,2075,1745153634554688421
6448437,2062,2059,1889,2068,1745153634554688421
6449438,2033,2048,1877,2060,1745153634554688421
6450438,2002,2035,1880,2048,1745153634554688421
6451438,1974,2025,1887,2032,1745153634554688421
6452438,1952,2021,1898,2024,1745153634554688421
6453438,1938,2018,1923,2015,1745153634554688421
6454438,1931,2021,1957,2011,1745153634554688421
6455438,1941,2026,2003,2014,1745153634554688421
6456439,1956,2034,2056,2061,1745153634554688421
6457438,2010,2077,2128,2064,1745153634554688421
6458438,1997,2038,2090,2038,1745153634554688421
6459438,2014,2058,2091,2062,1745153634554688421
6460438,2048,2069,2042,2073,1745153634554688421
6461439,2080,2076,1971,2082,1745153634554688421
6462439,2107,2076,1875,2083,1745153634554688421
6463439,2122,2074,1805,2086,1745153634554688421
6464439,2130,2067,1748,2081,1745153634554688421
6465439,2128,2060,1718,2077,1745153634554688421
6466439,2121,2051,1713,2069,1745153634554688421
6467439,2104,2041,1725,2059,1745153634554688421
6468439,2088,2034,1764,2050,1745153634554688421
6469439,2069,2022,1817,2036,1745153634554688421
6470439,2058,2015,1878,2027,1745153634554688421
6471439,2053,2008,1939,2020,1745153634554688421
6472439,2060,2004,1988,2014,1745153634554688421
6473440,2076,2006,2043,2008,1745153634554688421
6474440,2097,2010,2089,2004,1745153634554688421
6475440,2123,2016,2150,2004,1745153634554688421
6476440,2140,2024,2220,2013,1745153634554688421
6477440,2154,2033,2288,2021,1745153634554688421
6478440,2162,2042,2339,2032,1745153634554688421
6479440,2166,2050,2367,2042,1745153634554688421
6480440,2169,2057,2369,2052,1745153634554688421
6481440,2165,2059,2345,2065,1745153634554688421
6482440,2155,2057,2299,2074,1745153634554688421
6483440,2136,2054,2233,2082,1745153634554688421
6484440,2110,2049,2147,2082,1745153634554688421
6485441,2080,2044,2057,2076,1745153634554688421
6486441,2041,2042,1974,2073,1745153634554688421
6487441,2008,2041,1904,2060,1745153634554688421
6488441,1973,2038,1852,2049,1745153634554688421
6489441,1944,2037,1823,2034,1745153634554688421
6490441,1910,2037,1816,2018,1745153634554688421
6491441,1884,2034,1823,2008,1745153634554688421
6492441,1865,2036,1840,1995,1745153634554688421
6493441,1856,2038,1857,1987,1745153634554688421
6494441,1859,2043,1869,1985,1745153634554688421
6495441,1874,2051,1883,1985,1745153634554688421
6496441,1906,2060,1888,1989,1745153634554688421
6497442,1946,2066,1895,1997,1745153634554688421
6498442,1995,2075,1895,2009,1745153634554688421
6499442,2051,2082,1884,2024,1745153634554688421
6500442,2107,2088,1872,2043,1745153634554688421
6501442,2160,2088,1860,2066,1745153634554688421
6502442,2204,2083,1856,2087,1745153634554688421
6503442,2229,2072,1861,2100,1745153634611370924
6504442,2236,2059,1875,2107,1745153634611370924
6505442,2226,2045,1895,2110,1745153634611370924
6506442,2206,2035,1922,2105,1745153634611370924
6507442,2173,2024,1965,2099,1745153634611370924
6508442,2139,2009,2021,2089,1745153634611370924
6509443,2094,1997,2094,2077,1745153634611370924
6510443,2049,1988,2166,2060,1745153634611370924
6511443,2000,1986,2230,2051,1745153634611370924
6512444,1957,1990,2277,2035,1745153634611370924
6513443,1922,2000,2294,2027,1745153634611370924
6514443,1905,2019,2308,2021,1745153634611370924
6515444,1891,2032,2282,2013,1745153634611370924
6516443,1893,2044,2265,2001,1745153634611370924
6517443,1892,2093,2211,2035,1745153634611370924
6518443,1952,2089,2105,1986,1745153634611370924
6519443,1949,2059,2052,2001,1745153634611370924
6520444,2021,2066,2005,2008,1745153634611370924
6521444,2085,2064,1968,2014,1745153634611370924
6522444,2146,2056,1941,2017,1745153634611370924
6523444,2193,2044,1925,2028,1745153634611370924
6524444,2252,2033,1917,2003,1745153634611370924
6525444,2222,2026,1922,2005,1745153634611370924
6526444,2211,2019,1936,2003,1745153634611370924
6527444,2178,2012,1965,1997,1745153634611370924
6528444,2132,2007,2006,1996,1745153634611370924
6529444,2073,2001,2057,1997,1745153634611370924
6530445,1998,2002,2108,2003,1745153634611370924
6531444,1928,2007,2148,2012,1745153634611370924
6532444,1865,2015,2176,2024,1745153634611370924
6533445,1812,2025,2193,2037,1745153634611370924
6534445,1777,2032,2200,2049,1745153634611370924
6535445,1758,2043,2201,2057,1745153634611370924
6536445,1755,2057,2194,2061,1745153634611370924
6537445,1763,2065,2184,2064,1745153634611370924
6538445,1784,2073,2163,2068,1745153634611370924
6539445,1815,2081,2127,2075,1745153634611370924
6540445,1851,2092,2085,2082,1745153634611370924
6541445,1890,2101,2049,2088,1745153634611370924
6542445,1925,2107,2017,2090,1745153634611370924
6543445,1952,2107,2003,2096,1745153634611370924
6544445,1970,2106,1997,2100,1745153634611370924
6545446,1982,2098,2005,2107,1745153634611370924
6546446,1990,2092,2018,2109,1745153634611370924
6547446,2000,2082,2030,2107,1745153634611370924
6548446,2000,2076,2040,2104,1745153634611370924
6549446,1991,2067,2052,2097,1745153634611370924
6550446,1976,2059,2060,2085,1745153634611370924
6551446,1958,2054,2070,2070,1745153634611370924
6552446,1942,2053,2082,2056,1745153634611370924
6553446,1933,2056,2090,2040,1745153634611370924
6554446,1932,2062,2096,2021,1745153634611370924
6555446,1934,2070,2074,2006,1745153634611370924
6556446,1939,2083,2053,1995,1745153634611370924
6557447,1948,2093,2025,1991,1745153634611370924
6558447,1959,2109,1993,1988,1745153634611370924
6559447,1984,2124,1961,1993,1745153634611370924
6560447,2020,2141,1928,2002,1745153634611370924
6561447,2052,2155,1903,2020,1745153634708584672
6562447,2084,2162,1886,2050,1745153634708584672
6563447,2108,2163,1882,2077,1745153634708584672
6564447,2124,2160,1884,2105,1745153634708584672
6565447,2134,2153,1893,2127,1745153634708584672
6566447,2144,2140,1908,2141,1745153634708584672
6567447,2146,2120,1930,2145,1745153634708584672
6568447,2144,2100,1957,2138,1745153634708584672
6569448,2128,2078,1992,2124,1745153634708584672
6570448,2099,2058,2031,2109,1745153634708584672
6571448,2072,2035,2069,2097,1745153634708584672
6572448,2035,2018,2098,2083,1745153634708584672
6573448,2009,2004,2118,2085,1745153634708584672
6574448,2030,2034,2167,2073,1745153634708584672
6575448,2012,2000,2120,1997,1745153634708584672
6576448,1980,2016,2129,1992,1745153634708584672
6577449,1991,2040,2123,1981,1745153634708584672
6578448,2008,2070,2106,1984,1745153634708584672
6579448,2030,2099,2077,1990,1745153634708584672
6580448,2064,2125,2049,2002,1745153634708584672
6581449,2122,2144,2016,2019,1745153634708584672
6582449,2115,2158,1998,2042,1745153634708584672
6583449,2131,2166,1985,2074,1745153634708584672
6584449,2138,2165,1982,2106,1745153634708584672
6585449,2138,2164,1989,2139,1745153634708584672
6586449,2127,2157,2003,2170,1745153634708584672
6587449,2112,2153,2020,2194,1745153634708584672
6588449,2082,2147,2048,2206,1745153634708584672
6589449,2043,2146,2071,2193,1745153634708584672
6590449,1993,2136,2107,2185,1745153634708584672
6591449,1952,2146,2138,2156,1745153634708584672
6592449,1918,2152,2165,2123,1745153634708584672
6593450,1900,2160,2180,2085,1745153634708584672
6594450,1903,2165,2185,2053,1745153634708584672
6595450,1922,2172,2178,2021,1745153634708584672
6596450,1955,2180,2165,1995,1745153634708584672
6597450,1995,2186,2148,1978,1745153634708584672
6598450,2044,2190,2121,1976,1745153634708584672
6599450,2102,2186,2091,1989,1745153634708584672
6600450,2163,2177,2057,2013,1745153634708584672
6601450,2219,2162,2025,2030,1745153634708584672
6602450,2264,2148,2004,2041,1745153634708584672
6603450,2294,2137,1996,2042,1745153634708584672
6604450,2312,2130,1992,2038,1745153634708584672
6605451,2315,2118,1992,2032,1745153634708584672
6606451,2308,2109,2000,2028,1745153634708584672
6607451,2300,2099,2009,2026,1745153634708584672
6608451,2280,2086,2026,2024,1745153634708584672
6609451,2247,2072,2054,2025,1745153634708584672
6610451,2203,2064,2085,2024,1745153634708584672
6611451,2149,2062,2115,2024,1745153634708584672
6612451,2098,2064,2144,2021,1745153634708584672
6613451,2044,2067,2164,2027,1745153634708584672
6614451,2005,2075,2178,2030,1745153634708584672
6615451,1970,2083,2179,2033,1745153634708584672
6616451,1941,2092,2174,2036,1745153634708584672
6617452,1922,2100,2159,2048,1745153634708584672
6618452,1915,2112,2136,2080,1745153634708584672
6619452,1924,2128,2099,2128,1745153634799946597
6620452,1949,2143,2060,2189,1745153634799946597
6621452,1979,2157,2020,2249,1745153634799946597
6622452,2005,2169,1990,2296,1745153634799946597
6623453,2026,2184,1970,2334,1745153634799946597
6624452,2030,2198,1957,2356,1745153634799946597
6625452,2030,2213,1956,2362,1745153634799946597
6626452,2018,2225,1960,2351,1745153634799946597
6627452,1997,2238,1968,2321,1745153634799946597
6628452,1967,2246,1986,2278,1745153634799946597
6629454,1925,2250,2014,2228,1745153634799946597
6630453,1880,2248,2044,2174,1745153634799946597
6631453,1838,2237,2070,2125,1745153634799946597
6632454,1835,2254,2123,2117,1745153634799946597
6633453,1810,2217,2090,2042,1745153634799946597
6634453,1768,2148,2098,2042,1745153634799946597
6635453,1784,2114,2102,2035,1745153634799946597
6636454,1806,2070,2107,2022,1745153634799946597
6637453,1837,2027,2102,1998,1745153634799946597
6638453,1900,2025,2124,2006,1745153634799946597
6639453,1962,1994,2053,1978,1745153634799946597
6640453,2018,1981,2048,1952,1745153634799946597
6641454,2067,1969,2005,1924,1745153634799946597
6642455,2109,1962,1976,1894,1745153634799946597
6643454,2125,1957,1925,1824,1745153634799946597
6644454,2095,1929,1926,1811,1745153634799946597
6645454,2102,1926,1936,1785,1745153634799946597
6646454,2094,1921,1950,1762,1745153634799946597
6647454,2078,1913,1968,1738,1745153634799946597
6648454,2053,1908,1997,1728,1745153634799946597
6649454,2021,1900,2039,1737,1745153634799946597
6650454,1984,1894,2086,1769,1745153634799946597
6651454,1949,1890,2130,1835,1745153634799946597
6652454,1924,1893,2164,1930,1745153634799946597
6653455,1912,1901,2186,2035,1745153634799946597
6654455,1916,1916,2193,2124,1745153634799946597
6655455,1928,1941,2192,2181,1745153634799946597
6656455,1947,1977,2173,2193,1745153634799946597
6657455,1970,2024,2149,2165,1745153634799946597
6658455,1998,2081,2113,2110,1745153634799946597
6659455,2035,2138,2064,2038,1745153634799946597
6660455,2084,2186,2008,1969,1745153634799946597
6661455,2128,2217,1955,1911,1745153634799946597
6662455,2161,2221,1916,1867,1745153634799946597
6663455,2188,2201,1895,1841,1745153634799946597
6664455,2203,2157,1891,1828,1745153634799946597
6665456,2213,2105,1905,1835,1745153634799946597
6666456,2204,2033,1926,1862,1745153634799946597
6667456,2188,1969,1958,1912,1745153634799946597
6668456,2159,1893,2033,1998,1745153634799946597
6669456,2155,1854,2070,2069,1745153634799946597
6670456,2097,1793,2108,2111,1745153634799946597
6671456,2040,1757,2146,2128,1745153634799946597
6672456,1994,1748,2135,2077,1745153634799946597
6673456,1930,1738,2153,2081,1745153634799946597
6674456,1932,1780,2153,2065,1745153634799946597
6675456,1937,1825,2145,2052,1745153634799946597
6676456,1955,1867,2128,2051,1745153634799946597
6677457,1992,1909,2116,2106,1745153634809469010
6678457,2013,1933,2117,2144,1745153634809469010
6679457,2072,1958,2049,2124,1745153634809469010
6680457,2123,1989,2025,2140,1745153634809469010
6681457,2173,1998,2004,2144,1745153634809469010
6682457,2212,2006,1996,2139,1745153634809469010
6683457,2234,2005,1998,2128,1745153634809469010
6684457,2236,2002,2009,2110,1745153634809469010
6685457,2228,2002,2027,2089,1745153634809469010
6686457,2206,2005,2052,2069,1745153634809469010
6687457,2177,2005,2077,2057,1745153634809469010
6688458,2136,1996,2115,2051,1745153634809469010
6689458,2087,1980,2156,2053,1745153634809469010
6690458,2027,1971,2192,2067,1745153634809469010
6691459,1981,1964,2225,2084,1745153634809469010
6692458,1942,1956,2250,2099,1745153634809469010
6693458,1921,1950,2264,2105,1745153634809469010
6694458,1915,1947,2270,2104,1745153634809469010
6695458,1922,1942,2266,2100,1745153634809469010
6696458,1940,1944,2256,2097,1745153634809469010
6697458,1968,1945,2234,2093,1745153634809469010
6698458,2004,1945,2202,2098,1745153634809469010
6699458,2051,1944,2158,2106,1745153634809469010
6700458,2106,1949,2112,2117,1745153634809469010
6701459,2154,1958,2072,2118,1745153634809469010
6702459,2192,1963,2036,2103,1745153634809469010
6703459,2216,1961,2009,2078,1745153634809469010
6704459,2221,1960,1993,2040,1745153634809469010
6705459,2212,1947,1988,1995,1745153634809469010
6706459,2193,1921,1990,1950,1745153634809469010
6707459,2166,1896,2000,1910,1745153634809469010
6708459,2126,1876,2026,1881,1745153634809469010
6709459,2080,1863,2064,1858,1745153634809469010
6710459,2022,1862,2104,1841,1745153634809469010
6711459,1973,1865,2136,1827,1745153634809469010
6712459,1935,1870,2161,1824,1745153634809469010
6713460,1914,1880,2173,1823,1745153634809469010
6714460,1913,1897,2173,1836,1745153634809469010
6715460,1929,1921,2161,1851,1745153634809469010
6716460,1953,1946,2144,1869,1745153634809469010
6717460,1992,1966,2121,1893,1745153634809469010
6718460,2040,1988,2089,1917,1745153634809469010
6719460,2105,2003,2050,1938,1745153634809469010
6720460,2174,2013,2005,1959,1745153634809469010
6721460,2236,2028,1969,1999,1745153634809469010
6722460,2284,2036,1941,2066,1745153634809469010
6723460,2310,2043,1924,2144,1745153634809469010
6724460,2323,2059,1914,2217,1745153634809469010
6725461,2317,2075,1915,2264,1745153634809469010
6726461,2303,2082,1913,2277,1745153634809469010
6727461,2280,2108,1940,2255,1745153634809469010
6728461,2240,2105,1968,2201,1745153634809469010
6729461,2187,2100,2004,2129,1745153634809469010
6730461,2128,2090,2049,2049,1745153634809469010
6731461,2074,2066,2083,1971,1745153634809469010
6732461,2032,2041,2107,1905,1745153634809469010
6733461,2009,2009,2121,1840,1745153634809469010
6734461,2003,1973,2124,1788,1745153634809469010
6735461,2013,1929,2118,1755,1745153634844551086
6736461,2036,1904,2104,1753,1745153634844551086
6737462,2067,1881,2080,1765,1745153634844551086
6738462,2107,1875,2044,1781,1745153634844551086
6739462,2155,1886,2006,1801,1745153634844551086
6740462,2208,1910,1969,1839,1745153634844551086
6741462,2255,1946,1944,1887,1745153634844551086
6742462,2291,1979,1932,1936,1745153634844551086
6743462,2310,2011,1932,1979,1745153634844551086
6744462,2313,2037,1933,2024,1745153634844551086
6745462,2298,2064,1936,2073,1745153634844551086
6746462,2274,2083,1938,2109,1745153634844551086
6747462,2237,2099,1938,2124,1745153634844551086
6748463,2186,2112,1942,2121,1745153634844551086
6749463,2122,2112,1965,2107,1745153634844551086
6750463,2049,2101,1995,2095,1745153634844551086
6751463,1987,2085,2030,2099,1745153634844551086
6752463,1942,2064,2067,2116,1745153634844551086
6753463,1914,2039,2099,2136,1745153634844551086
6754463,1907,2024,2123,2145,1745153634844551086
6755463,1920,2018,2133,2133,1745153634844551086
6756463,1945,2014,2130,2099,1745153634844551086
6757463,1978,2010,2117,2042,1745153634844551086
6758464,2021,2003,2094,1978,1745153634844551086
6759463,2071,1992,2061,1914,1745153634844551086
6760463,2126,1989,2040,1861,1745153634844551086
6761464,2165,1992,2040,1876,1745153634844551086
6762464,2237,2022,2020,1881,1745153634844551086
6763464,2244,2026,2018,1882,1745153634844551086
6764464,2199,1990,2005,1948,1745153634844551086
6765464,2209,2009,2049,2020,1745153634844551086
6766464,2206,2011,2102,2088,1745153634844551086
6767464,2192,2010,2151,2144,1745153634844551086
6768464,2150,1994,2206,2169,1745153634844551086
6769464,2088,1995,2256,2234,1745153634844551086
6770464,2020,1997,2286,2197,1745153634844551086
6771464,1945,2017,2333,2193,1745153634844551086
6772464,1897,2032,2359,2169,1745153634844551086
6773465,1868,2036,2368,2144,1745153634844551086
6774465,1866,2043,2368,2124,1745153634844551086
6775465,1854,2050,2365,2133,1745153634844551086
6776465,1873,2085,2329,2147,1745153634844551086
6777465,1907,2121,2289,2154,1745153634844551086
6778465,1945,2159,2232,2165,1745153634844551086
6779465,1994,2196,2161,2180,1745153634844551086
6780465,2052,2246,2090,2197,1745153634844551086
6781465,2100,2294,2018,2212,1745153634844551086
6782465,2131,2339,1960,2225,1745153634844551086
6783465,2148,2373,1915,2232,1745153634844551086
6784465,2146,2396,1884,2232,1745153634844551086
6785466,2132,2408,1868,2227,1745153634844551086
6786466,2115,2406,1860,2209,1745153634844551086
6787466,2086,2399,1864,2182,1745153634844551086
6788466,2043,2390,1882,2150,1745153634844551086
6789466,1993,2378,1914,2110,1745153634844551086
6790466,1938,2369,1948,2070,1745153634844551086
6791466,1899,2356,1976,2032,1745153634844551086
6792466,1870,2340,2006,2009,1745153634844551086
6793466,1864,2325,2022,2001,1745153634912132656
6794466,1873,2298,2037,2005,1745153634912132656
6795466,1896,2269,2036,2019,1745153634912132656
6796466,1928,2239,2032,2034,1745153634912132656
6797467,1962,2212,2015,2058,1745153634912132656
6798467,2006,2192,1990,2082,1745153634912132656
6799467,2067,2173,1956,2110,1745153634912132656
6800467,2129,2164,1918,2133,1745153634912132656
6801467,2187,2157,1892,2147,1745153634912132656
6802467,2227,2155,1880,2145,1745153634912132656
6803467,2258,2153,1868,2130,1745153634912132656
6804469,2285,2150,1861,2107,1745153634912132656
6805467,2310,2153,1859,2090,1745153634912132656
6806467,2337,2149,1857,2083,1745153634912132656
6807467,2402,2179,1893,2113,1745153634912132656
6808467,2395,2125,1871,2064,1745153634912132656
6809468,2333,2113,1910,2082,1745153634912132656
6810468,2314,2102,1960,2096,1745153634912132656
6811468,2285,2097,2017,2107,1745153634912132656
6812468,2260,2120,2067,2117,1745153634912132656
6813468,2240,2100,2106,2142,1745153634912132656
6814468,2223,2107,2118,2168,1745153634912132656
6815468,2202,2115,2104,2195,1745153634912132656
6816468,2176,2124,2074,2216,1745153634912132656
6817468,2153,2128,2028,2229,1745153634912132656
6818468,2141,2128,1981,2245,1745153634912132656
6819468,2140,2124,1932,2253,1745153634912132656
6820468,2144,2119,1894,2254,1745153634912132656
6821469,2146,2113,1862,2247,1745153634912132656
6822469,2135,2105,1833,2228,1745153634912132656
6823469,2114,2100,1804,2198,1745153634912132656
6824469,2077,2092,1787,2164,1745153634912132656
6825469,2035,2077,1781,2139,1745153634912132656
6826469,1992,2053,1781,2121,1745153634912132656
6827469,1950,2019,1789,2100,1745153634912132656
6828469,1899,1989,1801,2068,1745153634912132656
6829469,1843,1958,1816,2033,1745153634912132656
6830469,1781,1933,1832,1998,1745153634912132656
6831469,1729,1910,1845,1973,1745153634912132656
6832469,1692,1900,1859,1955,1745153634912132656
6833470,1668,1892,1874,1945,1745153634912132656
6834470,1666,1891,1894,1937,1745153634912132656
6835470,1674,1891,1920,1929,1745153634912132656
6836470,1699,1891,1940,1921,1745153634912132656
6837470,1736,1889,1950,1917,1745153634912132656
6838470,1785,1882,1954,1926,1745153634912132656
6839470,1844,1876,1942,1940,1745153634912132656
6840470,1908,1871,1921,1961,1745153634912132656
6841470,1962,1867,1906,1989,1745153634912132656
6842470,2001,1863,1903,2008,1745153634912132656
6843470,2023,1860,1913,2025,1745153634912132656
6844470,2028,1853,1940,2033,1745153634912132656
6845471,2021,1851,1985,2038,1745153634912132656
6846471,2006,1845,2036,2036,1745153634912132656
6847471,1981,1839,2099,2026,1745153634912132656
6848471,1952,1834,2168,2006,1745153634912132656
6849471,1914,1829,2228,1984,1745153634912132656
6850471,1872,1827,2272,1963,1745153634912132656
6851471,1837,1830,2277,1950,1745153634961139812
6852471,1810,1835,2251,1938,1745153634961139812
6853471,1797,1844,2193,1934,1745153634961139812
6854471,1793,1862,2116,1942,1745153634961139812
6855471,1797,1880,2035,1962,1745153634961139812
6856471,1809,1893,1978,1994,1745153634961139812
6857472,1830,1908,1933,2031,1745153634961139812
6858472,1864,1917,1916,2076,1745153634961139812
6859472,1909,1926,1916,2114,1745153634961139812
6860472,1956,1930,1924,2142,1745153634961139812
6861472,1997,1933,1947,2166,1745153634961139812
6862472,2020,1940,1966,2181,1745153634961139812
6863472,2025,1946,1958,2196,1745153634961139812
6864472,2016,1956,1976,2195,1745153634961139812
6865472,1979,1963,1945,2184,1745153634961139812
6866472,1956,1976,1897,2149,1745153634961139812
6867472,1906,1982,1853,2099,1745153634961139812
6868472,1872,2006,1817,2036,1745153634961139812
6869473,1818,2026,1787,1974,1745153634961139812
6870473,1766,2042,1755,1923,1745153634961139812
6871473,1728,2053,1729,1896,1745153634961139812
6872473,1706,2054,1714,1900,1745153634961139812
6873473,1706,2048,1722,1940,1745153634961139812
6874473,1724,2037,1746,2035,1745153634961139812
6875473,1788,2059,1785,2088,1745153634961139812
6876473,1790,2003,1752,2092,1745153634961139812
6877473,1848,2013,1761,2110,1745153634961139812
6878473,1916,2022,1756,2105,1745153634961139812
6879473,1993,2026,1758,2073,1745153634961139812
6880473,2064,2028,1764,2020,1745153634961139812
6881474,2139,2030,1794,1964,1745153634961139812
6882474,2189,2027,1822,1906,1745153634961139812
6883474,2221,2021,1850,1867,1745153634961139812
6884474,2229,2020,1880,1843,1745153634961139812
6885474,2227,2018,1916,1838,1745153634961139812
6886474,2210,2022,1951,1849,1745153634961139812
6887474,2179,2035,1989,1869,1745153634961139812
6888474,2129,2049,2025,1892,1745153634961139812
6889474,2065,2056,2060,1926,1745153634961139812
6890474,2002,2057,2094,1968,1745153634961139812
6891474,1956,2054,2118,2008,1745153634961139812
6892474,1926,2050,2130,2042,1745153634961139812
6893475,1918,2048,2130,2073,1745153634961139812
6894475,1929,2049,2125,2099,1745153634961139812
6895475,1956,2056,2114,2108,1745153634961139812
6896475,1993,2071,2105,2101,1745153634961139812
6897475,2036,2091,2088,2089,1745153634961139812
6898475,2091,2120,2068,2073,1745153634961139812
6899475,2149,2151,2041,2065,1745153634961139812
6900475,2206,2192,2020,2077,1745153634961139812
6901475,2248,2230,2013,2102,1745153634961139812
6902475,2274,2272,2022,2128,1745153634961139812
6903475,2272,2306,2040,2144,1745153634961139812
6904475,2252,2328,2053,2147,1745153634961139812
6905476,2218,2333,2059,2139,1745153634961139812
6906476,2179,2314,2073,2115,1745153634961139812
6907476,2134,2272,2084,2075,1745153634961139812
6908476,2083,2228,2107,2026,1745153634961139812
6909476,2022,2184,2136,1984,1745153635019319125
6910476,1970,2154,2157,1952,1745153635019319125
6911476,1929,2121,2171,1928,1745153635019319125
6912476,1904,2104,2179,1907,1745153635019319125
6913476,1899,2101,2189,1891,1745153635019319125
6914476,1907,2107,2196,1896,1745153635019319125
6915476,1931,2117,2198,1915,1745153635019319125
6916476,1962,2118,2197,1946,1745153635019319125
6917477,2010,2106,2186,1984,1745153635019319125
6918477,2071,2080,2161,2027,1745153635019319125
6919477,2144,2050,2120,2072,1745153635019319125
6920477,2219,2021,2067,2098,1745153635019319125
6921477,2270,2000,2017,2098,1745153635019319125
6922477,2306,1988,1980,2081,1745153635019319125
6923477,2321,1985,1960,2078,1745153635019319125
6924479,2357,2035,1984,2023,1745153635019319125
6925477,2261,1996,1926,1941,1745153635019319125
6926477,2212,2026,1940,1917,1745153635019319125
6927477,2156,2038,1966,1907,1745153635019319125
6928477,2084,2035,2017,1915,1745153635019319125
6929478,2005,2021,2088,1935,1745153635019319125
6930478,1930,1996,2170,1989,1745153635019319125
6931478,1876,1968,2232,2056,1745153635019319125
6932478,1837,1930,2261,2121,1745153635019319125
6933478,1820,1888,2267,2186,1745153635019319125
6934478,1822,1845,2247,2250,1745153635019319125
6935478,1832,1818,2220,2297,1745153635019319125
6936478,1860,1811,2187,2324,1745153635019319125
6937478,1900,1817,2136,2329,1745153635019319125
6938478,1962,1832,2060,2321,1745153635019319125
6939478,2038,1844,1980,2310,1745153635019319125
6940479,2116,1861,1915,2291,1745153635019319125
6941479,2187,1866,1861,2252,1745153635019319125
6942479,2236,1862,1828,2197,1745153635019319125
6943479,2282,1850,1812,2121,1745153635019319125
6944479,2318,1837,1813,2041,1745153635019319125
6945479,2347,1822,1821,1970,1745153635019319125
6946479,2369,1815,1840,1918,1745153635019319125
6947479,2381,1813,1858,1886,1745153635019319125
6948479,2377,1825,1893,1874,1745153635019319125
6949479,2356,1845,1934,1886,1745153635019319125
6950479,2329,1872,1990,1897,1745153635019319125
6951479,2306,1901,2061,1909,1745153635019319125
6952479,2299,1928,2138,1934,1745153635019319125
6953480,2303,1945,2209,1978,1745153635019319125
6954480,2315,1950,2257,2039,1745153635019319125
6955480,2323,1958,2275,2102,1745153635019319125
6956480,2334,1972,2266,2157,1745153635019319125
6957480,2349,1995,2225,2184,1745153635019319125
6958480,2374,2025,2166,2188,1745153635019319125
6959480,2411,2060,2088,2163,1745153635019319125
6960480,2445,2109,2011,2138,1745153635019319125
6961480,2460,2163,1941,2125,1745153635019319125
6962480,2461,2226,1882,2136,1745153635019319125
6963480,2443,2298,1852,2169,1745153635019319125
6964480,2404,2383,1846,2204,1745153635019319125
6965481,2353,2473,1862,2236,1745153635019319125
6966481,2293,2546,1908,2252,1745153635019319125
6967481,2229,2590,1981,2245,1745153635085331282
6968481,2150,2611,2074,2205,1745153635085331282
6969481,2054,2604,2147,2155,1745153635085331282
6970481,1978,2589,2217,2094,1745153635085331282
6971481,1911,2559,2274,2021,1745153635085331282
6972481,1867,2506,2320,1962,1745153635085331282
6973481,1852,2443,2336,1909,1745153635085331282
6974481,1858,2365,2351,1866,1745153635085331282
6975481,1881,2307,2326,1826,1745153635085331282
6976481,1906,2257,2282,1791,1745153635085331282
6977482,1940,2212,2212,1769,1745153635085331282
6978482,1977,2171,2133,1756,1745153635085331282
6979482,2022,2133,2049,1749,1745153635085331282
6980482,2052,2097,1972,1746,1745153635085331282
6981482,2054,2049,1908,1743,1745153635085331282
6982484,2015,1996,1867,1760,1745153635085331282
6983482,1945,1945,1845,1800,1745153635085331282
6984482,1860,1896,1845,1850,1745153635085331282
6985482,1772,1889,1917,1926,1745153635085331282
6986482,1716,1800,1915,1896,1745153635085331282
6987483,1606,1755,2008,1915,1745153635085331282
6988483,1535,1704,2109,1900,1745153635085331282
6989484,1457,1681,2208,1897,1745153635085331282
6990483,1382,1665,2284,1901,1745153635085331282
6991483,1328,1665,2337,1930,1745153635085331282
6992483,1323,1678,2376,1961,1745153635085331282
6993483,1361,1694,2400,1981,1745153635085331282
6994483,1440,1706,2405,1994,1745153635085331282
6995483,1532,1717,2384,2000,1745153635085331282
6996483,1627,1768,2374,2051,1745153635085331282
6997483,1760,1747,2218,2014,1745153635085331282
6998483,1826,1787,2111,2076,1745153635085331282
6999483,1945,1839,1996,2143,1745153635085331282
7000483,2057,1898,1896,2208,1745153635085331282
7001484,2150,1953,1821,2256,1745153635085331282
7002484,2219,2020,1774,2270,1745153635085331282
7003484,2262,2110,1763,2246,1745153635085331282
7004484,2279,2201,1771,2195,1745153635085331282
7005484,2277,2272,1824,2126,1745153635085331282
7006484,2262,2315,1874,2050,1745153635085331282
7007484,2236,2323,1945,1968,1745153635085331282
7008484,2197,2314,2013,1888,1745153635085331282
7009484,2141,2296,2077,1825,1745153635085331282
7010484,2081,2264,2125,1780,1745153635085331282
7011484,2028,2237,2146,1756,1745153635085331282
7012484,1994,2216,2154,1754,1745153635085331282
7013485,1978,2209,2147,1764,1745153635085331282
7014485,1982,2208,2125,1772,1745153635085331282
7015485,2000,2210,2089,1777,1745153635085331282
7016485,2028,2212,2041,1782,1745153635085331282
7017485,2072,2218,1986,1801,1745153635085331282
7018485,2125,2226,1926,1828,1745153635085331282
7019485,2186,2232,1870,1868,1745153635085331282
7020485,2242,2229,1835,1921,1745153635085331282
7021485,2284,2213,1824,1989,1745153635085331282
7022485,2307,2188,1846,2049,1745153635085331282
7023485,2313,2144,1897,2103,1745153635085331282
7024485,2313,2084,1950,2146,1745153635085331282
7025486,2298,2022,2008,2184,1745153635136842374
7026486,2270,1968,2056,2205,1745153635136842374
7027486,2229,1917,2100,2226,1745153635136842374
7028486,2176,1873,2154,2241,1745153635136842374
7029486,2115,1839,2197,2245,1745153635136842374
7030486,2060,1801,2226,2237,1745153635136842374
7031486,2026,1762,2236,2222,1745153635136842374
7032486,2032,1739,2234,2206,1745153635136842374
7033486,2108,1717,2236,2192,1745153635136842374
7034486,2272,1693,2249,2180,1745153635136842374
7035486,2527,1673,2257,2163,1745153635136842374
7036486,2824,1664,2252,2149,1745153635136842374
7037487,3133,1674,2216,2144,1745153635136842374
7038487,3390,1704,2150,2140,1745153635136842374
7039487,3583,1760,2066,2133,1745153635136842374
7040487,3697,1836,1978,2102,1745153635136842374
7041487,3730,1926,1914,2069,1745153635136842374
7042489,3676,2010,1864,2052,1745153635136842374
7043487,3571,2083,1830,2045,1745153635136842374
7044487,3418,2136,1818,2040,1745153635136842374
7045487,3253,2168,1821,2033,1745153635136842374
7046487,3082,2188,1843,2019,1745153635136842374
7047487,2916,2197,1885,2002,1745153635136842374
7048487,2811,2257,1986,2010,1745153635136842374
7049488,2641,2205,1992,1942,1745153635136842374
7050488,2443,2190,2062,1945,1745153635136842374
7051488,2319,2152,2093,1950,1745153635136842374
7052488,2220,2105,2146,1998,1745153635136842374
7053488,2192,2106,2108,1956,1745153635136842374
7054488,2082,2029,2018,1963,1745153635136842374
7055488,2068,2027,1986,1957,1745153635136842374
7056488,2055,2033,1881,1945,1745153635136842374
7057488,2065,2059,1802,1924,1745153635136842374
7058488,2087,2091,1718,1915,1745153635136842374
7059488,2112,2128,1641,1920,1745153635136842374
7060488,2133,2163,1584,1936,1745153635136842374
7061489,2134,2188,1572,1952,1745153635136842374
7062489,2111,2186,1612,1973,1745153635136842374
7063489,2072,2155,1696,2007,1745153635136842374
7064489,2025,2116,1806,2066,1745153635136842374
7065489,1985,2075,1933,2150,1745153635136842374
7066489,1944,2026,2052,2242,1745153635136842374
7067489,1895,1976,2156,2328,1745153635136842374
7068489,1830,1934,2244,2385,1745153635136842374
7069489,1757,1892,2308,2401,1745153635136842374
7070489,1680,1864,2333,2373,1745153635136842374
7071489,1609,1854,2324,2315,1745153635136842374
7072489,1552,1861,2288,2241,1745153635136842374
7073490,1515,1897,2225,2160,1745153635136842374
7074490,1489,1948,2146,2080,1745153635136842374
7075491,1477,2013,2068,2006,1745153635136842374
7076490,1482,2084,1984,1950,1745153635136842374
7077490,1506,2145,1909,1915,1745153635136842374
7078490,1542,2187,1841,1896,1745153635136842374
7079490,1603,2201,1784,1887,1745153635136842374
7080490,1661,2168,1759,1889,1745153635136842374
7081490,1703,2104,1770,1902,1745153635136842374
7082490,1733,2032,1814,1920,1745153635136842374
7083490,1733,1973,1872,1949,1745153635197062189
7084490,1713,1945,1928,1980,1745153635197062189
7085491,1676,1953,1982,2011,1745153635197062189
7086491,1622,1990,2027,2031,1745153635197062189
7087491,1564,2041,2076,2042,1745153635197062189
7088491,1502,2098,2121,2050,1745153635197062189
7089491,1432,2144,2159,2052,1745153635197062189
7090491,1372,2184,2189,2054,1745153635197062189
7091491,1328,2228,2200,2054,1745153635197062189
7092491,1307,2273,2211,2056,1745153635197062189
7093491,1307,2296,2212,2042,1745153635197062189
7094491,1336,2296,2211,2028,1745153635197062189
7095491,1376,2280,2190,2002,1745153635197062189
7096492,1424,2262,2153,1961,1745153635197062189
7097492,1477,2256,2093,1913,1745153635197062189
7098492,1535,2255,2010,1881,1745153635197062189
7099492,1598,2264,1970,1922,1745153635197062189
7100492,1697,2316,1886,1902,1745153635197062189
7101492,1692,2272,1812,1958,1745153635197062189
7102492,1733,2269,1795,2030,1745153635197062189
7103492,1745,2230,1808,2093,1745153635197062189
7104492,1741,2172,1856,2134,1745153635197062189
7105492,1715,2108,1920,2155,1745153635197062189
7106492,1697,2054,2005,2161,1745153635197062189
7107492,1664,2022,2098,2154,1745153635197062189
7108492,1621,2010,2201,2126,1745153635197062189
7109493,1582,2011,2293,2094,1745153635197062189
7110493,1545,2011,2357,2065,1745153635197062189
7111493,1530,2011,2386,2048,1745153635197062189
7112493,1522,2012,2382,2048,1745153635197062189
7113493,1528,2017,2354,2064,1745153635197062189
7114493,1541,2024,2322,2096,1745153635197062189
7115493,1571,2035,2281,2149,1745153635197062189
7116493,1609,2056,2242,2196,1745153635197062189
7117493,1654,2080,2185,2233,1745153635197062189
7118493,1710,2098,2122,2255,1745153635197062189
7119493,1774,2116,2060,2257,1745153635197062189
7120493,1828,2131,2013,2256,1745153635197062189
7121494,1866,2141,1979,2251,1745153635197062189
7122494,1889,2147,1964,2248,1745153635197062189
7123494,1890,2145,1956,2230,1745153635197062189
7124494,1878,2141,1952,2201,1745153635197062189
7125494,1850,2136,1950,2156,1745153635197062189
7126494,1819,2129,1944,2106,1745153635197062189
7127494,1771,2123,1950,2064,1745153635197062189
7128494,1710,2121,1970,2036,1745153635197062189
7129494,1649,2119,2004,2037,1745153635197062189
7130494,1589,2112,2052,2053,1745153635197062189
7131494,1541,2113,2104,2081,1745153635197062189
7132494,1532,2122,2153,2125,1745153635197062189
7133495,1535,2137,2180,2180,1745153635197062189
7134495,1553,2154,2206,2218,1745153635197062189
7135495,1594,2178,2217,2230,1745153635197062189
7136495,1659,2195,2206,2209,1745153635197062189
7137495,1724,2204,2162,2161,1745153635197062189
7138495,1795,2210,2091,2109,1745153635197062189
7139495,1867,2216,2006,2069,1745153635197062189
7140495,1931,2211,1937,2057,1745153635197062189
7141495,1976,2196,1897,2059,1745153635256974454
7142495,2008,2173,1894,2058,1745153635256974454
7143495,2018,2150,1909,2060,1745153635256974454
7144495,2010,2125,1944,2068,1745153635256974454
7145496,1994,2090,1994,2081,1745153635256974454
7146496,1970,2042,2048,2091,1745153635256974454
7147496,1947,1987,2113,2098,1745153635256974454
7148496,1913,1941,2185,2099,1745153635256974454
7149496,1872,1920,2248,2091,1745153635256974454
7150496,1836,1925,2278,2077,1745153635256974454
7151496,1809,1949,2277,2060,1745153635256974454
7152496,1802,1981,2245,2041,1745153635256974454
7153496,1816,1989,2193,2040,1745153635256974454
7154496,1845,1973,2138,2061,1745153635256974454
7155496,1885,1942,2088,2094,1745153635256974454
7156497,1933,1940,2040,2149,1745153635256974454
7157497,1992,1960,1969,2185,1745153635256974454
7158497,2051,2012,1889,2204,1745153635256974454
7159497,2104,2081,1802,2249,1745153635256974454
7160497,2195,2214,1765,2209,1745153635256974454
7161497,2168,2222,1666,2125,1745153635256974454
7162497,2189,2278,1644,2105,1745153635256974454
7163497,2193,2297,1643,2120,1745153635256974454
7164497,2176,2290,1665,2158,1745153635256974454
7165497,2139,2256,1706,2217,1745153635256974454
7166497,2107,2210,1766,2267,1745153635256974454
7167497,2060,2137,1849,2298,1745153635256974454
7168499,2003,2060,1944,2301,1745153635256974454
7169498,1950,1990,2049,2279,1745153635256974454
7170498,1913,1936,2128,2229,1745153635256974454
7171498,1886,1900,2175,2162,1745153635256974454
7172498,1882,1886,2190,2096,1745153635256974454
7173498,1894,1909,2172,2030,1745153635256974454
7174498,1916,1949,2138,2001,1745153635256974454
7175498,1952,1990,2085,2008,1745153635256974454
7176498,1982,2033,2029,2044,1745153635256974454
7177498,2023,2075,1952,2086,1745153635256974454
7178498,2072,2115,1869,2118,1745153635256974454
7179498,2122,2150,1790,2131,1745153635256974454
7180498,2161,2171,1734,2129,1745153635256974454
7181499,2183,2165,1705,2130,1745153635256974454
7182499,2197,2147,1699,2128,1745153635256974454
7183499,2200,2126,1725,2130,1745153635256974454
7184499,2197,2106,1772,2125,1745153635256974454
7185499,2190,2089,1825,2124,1745153635256974454
7186499,2179,2081,1888,2116,1745153635256974454
7187499,2159,2101,1949,2112,1745153635256974454
7188499,2132,2129,2024,2119,1745153635256974454
7189499,2092,2154,2101,2123,1745153635256974454
7190499,2057,2179,2159,2127,1745153635256974454
7191499,2031,2205,2192,2130,1745153635256974454
7192499,2016,2226,2202,2141,1745153635256974454
7193500,2014,2243,2188,2172,1745153635256974454
7194500,2022,2256,2160,2203,1745153635256974454
7195500,2037,2260,2126,2223,1745153635256974454
7196500,2068,2252,2088,2207,1745153635256974454
7197500,2102,2238,2036,2158,1745153635256974454
7198500,2139,2223,1988,2089,1745153635256974454
7199500,2195,2206,1926,2016,1745153635312122335
7200500,2233,2188,1888,1964,1745153635312122335
7201500,2261,2179,1868,1936,1745153635312122335
7202500,2264,2180,1869,1928,1745153635312122335
7203500,2250,2183,1892,1939,1745153635312122335
7204500,2216,2181,1933,1960,1745153635312122335
7205501,2172,2166,1981,1988,1745153635312122335
7206501,2125,2152,2036,2026,1745153635312122335
7207501,2074,2136,2101,2060,1745153635312122335
7208501,2021,2116,2173,2080,1745153635312122335
7209501,1972,2097,2237,2072,1745153635312122335
7210501,1932,2083,2289,2040,1745153635312122335
7211501,1903,2076,2312,2001,1745153635312122335
7212501,1888,2079,2334,1965,1745153635312122335
7213501,1892,2083,2329,1955,1745153635312122335
7214501,1916,2090,2331,1963,1745153635312122335
7215501,1958,2100,2338,1980,1745153635312122335
7216501,2002,2124,2314,2004,1745153635312122335
7217502,2067,2155,2292,2019,1745153635312122335
7218502,2116,2204,2186,2036,1745153635312122335
7219502,2177,2187,2123,2098,1745153635312122335
7220502,2263,2239,2102,2032,1745153635312122335
7221502,2219,2181,2019,2009,1745153635312122335
7222502,2220,2188,2021,1977,1745153635312122335
7223502,2192,2176,2033,1952,1745153635312122335
7224502,2144,2169,2070,1967,1745153635312122335
7225502,2067,2153,2109,2013,1745153635312122335
7226502,1989,2145,2157,2097,1745153635312122335
7227502,1889,2136,2217,2168,1745153635312122335
7228502,1779,2133,2283,2216,1745153635312122335
7229503,1673,2142,2349,2229,1745153635312122335
7230503,1576,2157,2404,2216,1745153635312122335
7231503,1513,2178,2436,2158,1745153635312122335
7232503,1461,2194,2445,2071,1745153635312122335
7233503,1432,2200,2424,1981,1745153635312122335
7234503,1420,2191,2385,1917,1745153635312122335
7235503,1435,2164,2341,1880,1745153635312122335
7236503,1466,2125,2299,1858,1745153635312122335
7237503,1520,2090,2268,1838,1745153635312122335
7238503,1579,2059,2245,1814,1745153635312122335
7239503,1657,2034,2250,1801,1745153635312122335
7240503,1736,2011,2285,1805,1745153635312122335
7241504,1810,1986,2356,1826,1745153635312122335
7242504,1870,1962,2454,1850,1745153635312122335
7243504,1922,1940,2556,1866,1745153635312122335
7244504,1958,1931,2657,1878,1745153635312122335
7245504,1980,1924,2764,1878,1745153635312122335
7246504,1996,1924,2860,1878,1745153635312122335
7247504,1994,1925,2957,1870,1745153635312122335
7248504,1986,1936,3050,1868,1745153635312122335
7249504,1965,1953,3120,1869,1745153635312122335
7250504,1947,1982,3165,1888,1745153635312122335
7251504,1943,2026,3180,1902,1745153635312122335
7252504,1958,2067,3165,1932,1745153635312122335
7253505,1993,2100,3136,1964,1745153635312122335
7254505,2050,2117,3094,1987,1745153635312122335
7255505,2110,2122,3060,1997,1745153635312122335
7256505,2172,2106,3028,1995,1745153635312122335
7257505,2232,2076,2986,1982,1745153635377573040
7258505,2297,2035,2958,1965,1745153635377573040
7259505,2364,2009,2950,1955,1745153635377573040
7260505,2422,2002,2957,1953,1745153635377573040
7261505,2464,2011,2976,1955,1745153635377573040
7262505,2496,2022,2993,1955,1745153635377573040
7263505,2500,2026,3001,1965,1745153635377573040
7264505,2485,2021,3004,1982,1745153635377573040
7265506,2449,2016,3006,2007,1745153635377573040
7266506,2396,2015,3001,2034,1745153635377573040
7267506,2330,2024,3004,2069,1745153635377573040
7268506,2261,2048,3003,2105,1745153635377573040
7269506,2190,2067,3004,2120,1745153635377573040
7270506,2129,2052,2979,2097,1745153635377573040
7271506,2097,2010,2936,2043,1745153635377573040
7272506,2083,1973,2877,1982,1745153635377573040
7273506,2088,1966,2808,1904,1745153635377573040
7274506,2100,1982,2736,1872,1745153635377573040
7275506,2171,2057,2717,1837,1745153635377573040
7276506,2152,2012,2593,1818,1745153635377573040
7277507,2208,2022,2559,1853,1745153635377573040
7278507,2278,2029,2526,1894,1745153635377573040
7279507,2350,2054,2474,1933,1745153635377573040
7280507,2411,2074,2422,1968,1745153635377573040
7281507,2456,2107,2380,2013,1745153635377573040
7282507,2476,2124,2344,2037,1745153635377573040
7283507,2483,2134,2310,2051,1745153635377573040
7284507,2474,2138,2290,2048,1745153635377573040
7285507,2454,2152,2273,2028,1745153635377573040
7286507,2421,2178,2260,2019,1745153635377573040
7287507,2391,2209,2258,2006,1745153635377573040
7288507,2350,2227,2262,1990,1745153635377573040
7289508,2317,2229,2273,1981,1745153635377573040
7290508,2293,2204,2272,1984,1745153635377573040
7291508,2285,2163,2252,2006,1745153635377573040
7292508,2290,2120,2210,2028,1745153635377573040
7293508,2304,2077,2163,2060,1745153635377573040
7294508,2332,2034,2110,2091,1745153635377573040
7295508,2372,2012,2064,2115,1745153635377573040
7296508,2421,2017,2018,2149,1745153635377573040
7297508,2480,2035,1969,2186,1745153635377573040
7298508,2536,2063,1918,2217,1745153635377573040
7299508,2584,2080,1864,2228,1745153635377573040
7300508,2627,2099,1818,2218,1745153635377573040
7301509,2652,2117,1782,2190,1745153635377573040
7302509,2659,2118,1769,2157,1745153635377573040
7303509,2644,2086,1765,2122,1745153635377573040
7304509,2606,2012,1775,2089,1745153635377573040
7305509,2559,1939,1797,2069,1745153635377573040
7306509,2518,1874,1824,2055,1745153635377573040
7307509,2464,1841,1862,2045,1745153635377573040
7308509,2405,1828,1899,2026,1745153635377573040
7309509,2346,1833,1929,1990,1745153635377573040
7310509,2296,1853,1929,1945,1745153635377573040
7311509,2260,1883,1903,1896,1745153635377573040
7312509,2238,1923,1851,1869,1745153635377573040
7313510,2232,1960,1789,1875,1745153635377573040
7314510,2238,1992,1733,1915,1745153635377573040
7315510,2258,2021,1683,1970,1745153635432162749
7316510,2284,2050,1641,2021,1745153635432162749
7317510,2318,2064,1602,2068,1745153635432162749
7318510,2360,2052,1556,2099,1745153635432162749
7319510,2412,2009,1535,2104,1745153635432162749
7320510,2454,1966,1514,2099,1745153635432162749
7321510,2475,1942,1512,2094,1745153635432162749
7322510,2472,1941,1532,2101,1745153635432162749
7323510,2445,1952,1556,2116,1745153635432162749
7324510,2408,1971,1593,2126,1745153635432162749
7325511,2361,1996,1629,2125,1745153635432162749
7326511,2312,2020,1654,2109,1745153635432162749
7327511,2254,2035,1684,2081,1745153635432162749
7328511,2196,2042,1714,2049,1745153635432162749
7329511,2137,2052,1743,2008,1745153635432162749
7330511,2084,2063,1750,1984,1745153635432162749
7331511,2048,2073,1750,1978,1745153635432162749
7332511,2025,2083,1727,1985,1745153635432162749
7333515,2018,2088,1710,2009,1745153635432162749
7334511,2029,2080,1680,2036,1745153635432162749
7335511,2059,2061,1648,2055,1745153635432162749
7336512,2092,2044,1614,2064,1745153635432162749
7337512,2131,2028,1562,2059,1745153635432162749
7338512,2179,2021,1508,2059,1745153635432162749
7339512,2213,2008,1465,2057,1745153635432162749
7340512,2243,2052,1459,2091,1745153635432162749
7341512,2307,1999,1411,2070,1745153635432162749
7342512,2263,1990,1420,2136,1745153635432162749
7343512,2256,2002,1441,2200,1745153635432162749
7344512,2232,2025,1458,2278,1745153635432162749
7345512,2193,2053,1476,2365,1745153635432162749
7346512,2144,2078,1507,2437,1745153635432162749
7347512,2096,2104,1540,2454,1745153635432162749
7348512,2037,2131,1595,2412,1745153635432162749
7349513,1984,2146,1654,2312,1745153635432162749
7350513,1951,2133,1713,2189,1745153635432162749
7351513,1944,2092,1770,2081,1745153635432162749
7352513,1954,2034,1826,1982,1745153635432162749
7353513,1980,1984,1858,1914,1745153635432162749
7354513,2022,1947,1869,1877,1745153635432162749
7355513,2066,1925,1853,1872,1745153635432162749
7356513,2115,1921,1818,1890,1745153635432162749
7357513,2172,1930,1764,1909,1745153635432162749
7358513,2221,1944,1685,1915,1745153635432162749
7359513,2276,1963,1602,1906,1745153635432162749
7360513,2314,1985,1536,1907,1745153635432162749
7361514,2360,1996,1489,1892,1745153635432162749
7362514,2336,2020,1470,1890,1745153635432162749
7363514,2321,2032,1478,1889,1745153635432162749
7364514,2290,2034,1513,1884,1745153635432162749
7365514,2249,2029,1552,1901,1745153635432162749
7366514,2206,2017,1629,1932,1745153635432162749
7367514,2161,1997,1718,1966,1745153635432162749
7368514,2108,1972,1824,2003,1745153635432162749
7369514,2062,1944,1924,2035,1745153635432162749
7370514,2022,1915,2001,2054,1745153635432162749
7371514,1998,1888,2056,2058,1745153635432162749
7372514,1984,1870,2076,2053,1745153635432162749
7373515,1980,1872,2067,2036,1745153635495177069
7374515,1986,1901,2036,2011,1745153635495177069
7375515,2002,1945,1983,1982,1745153635495177069
7376515,2021,1986,1924,1957,1745153635495177069
7377515,2048,2027,1849,1947,1745153635495177069
7378515,2081,2065,1771,1966,1745153635495177069
7379515,2113,2081,1706,2009,1745153635495177069
7380515,2132,2078,1652,2068,1745153635495177069
7381515,2138,2076,1634,2137,1745153635495177069
7382515,2128,2093,1641,2201,1745153635495177069
7383515,2102,2121,1670,2242,1745153635495177069
7384515,2068,2145,1714,2260,1745153635495177069
7385516,2029,2157,1761,2254,1745153635495177069
7386516,1988,2164,1819,2229,1745153635495177069
7387516,1942,2164,1876,2171,1745153635495177069
7388517,1884,2164,1926,2106,1745153635495177069
7389517,1835,2166,1963,2032,1745153635495177069
7390516,1789,2177,1979,1963,1745153635495177069
7391516,1755,2198,1970,1914,1745153635495177069
7392517,1734,2213,1945,1898,1745153635495177069
7393516,1730,2204,1909,1905,1745153635495177069
7394516,1738,2176,1870,1947,1745153635495177069
7395516,1800,2164,1866,1970,1745153635495177069
7396516,1789,2053,1778,1945,1745153635495177069
7397517,1840,2019,1761,1950,1745153635495177069
7398517,1893,1996,1729,1949,1745153635495177069
7399517,1950,1986,1706,1949,1745153635495177069
7400517,1995,1988,1690,1948,1745153635495177069
7401517,2037,1997,1694,1950,1745153635495177069
7402517,2059,1993,1704,1954,1745153635495177069
7403517,2065,1992,1721,1966,1745153635495177069
7404517,2051,2007,1734,1990,1745153635495177069
7405517,2022,2037,1745,2009,1745153635495177069
7406517,1980,2081,1761,2030,1745153635495177069
7407517,1924,2137,1788,2053,1745153635495177069
7408517,1867,2178,1837,2076,1745153635495177069
7409518,1813,2193,1899,2096,1745153635495177069
7410518,1779,2181,1961,2109,1745153635495177069
7411518,1760,2148,2022,2111,1745153635495177069
7412518,1766,2118,2066,2112,1745153635495177069
7413518,1790,2093,2098,2126,1745153635495177069
7414518,1834,2073,2123,2134,1745153635495177069
7415518,1883,2068,2141,2133,1745153635495177069
7416518,1936,2078,2150,2118,1745153635495177069
7417518,1997,2088,2149,2102,1745153635495177069
7418518,2069,2096,2133,2090,1745153635495177069
7419518,2145,2080,2128,2081,1745153635495177069
7420518,2210,2056,2130,2074,1745153635495177069
7421519,2259,2026,2148,2075,1745153635495177069
7422519,2284,2000,2170,2082,1745153635495177069
7423519,2285,1980,2185,2100,1745153635495177069
7424519,2266,1970,2193,2104,1745153635495177069
7425519,2232,1968,2194,2090,1745153635495177069
7426519,2188,1976,2194,2064,1745153635495177069
7427519,2134,1989,2197,2041,1745153635495177069
7428519,2073,2005,2209,2022,1745153635495177069
7429519,2007,2008,2222,1995,1745153635495177069
7430519,1956,2006,2222,1974,1745153635495177069
7431519,1923,2000,2220,1953,1745153635546778629
7432519,1908,1992,2211,1940,1745153635546778629
7433520,1914,1984,2203,1953,1745153635546778629
7434520,1937,1976,2193,1987,1745153635546778629
7435520,1970,1973,2176,2028,1745153635546778629
7436520,2008,1978,2138,2065,1745153635546778629
7437520,2045,1989,2086,2097,1745153635546778629
7438520,2089,2000,2033,2124,1745153635546778629
7439520,2126,2009,2009,2132,1745153635546778629
7440520,2153,2017,2005,2124,1745153635546778629
7441520,2162,2031,2014,2098,1745153635546778629
7442520,2154,2038,2040,2087,1745153635546778629
7443520,2131,2035,2069,2099,1745153635546778629
7444520,2097,2018,2098,2129,1745153635546778629
7445521,2057,1988,2131,2148,1745153635546778629
7446521,2012,1962,2173,2149,1745153635546778629
7447522,1958,1944,2222,2136,1745153635546778629
7448521,1898,1931,2274,2102,1745153635546778629
7449521,1840,1923,2315,2057,1745153635546778629
7450521,1802,1909,2341,2009,1745153635546778629
7451521,1777,1885,2350,1968,1745153635546778629
7452521,1769,1866,2340,1944,1745153635546778629
7453521,1779,1870,2306,1941,1745153635546778629
7454521,1801,1900,2244,1958,1745153635546778629
7455521,1831,1947,2171,1979,1745153635546778629
7456521,1869,1993,2090,2003,1745153635546778629
7457522,1912,2038,1997,2023,1745153635546778629
7458522,1956,2110,1957,2071,1745153635546778629
7459522,1990,2106,1836,2025,1745153635546778629
7460522,2013,2146,1804,2021,1745153635546778629
7461522,2030,2161,1792,2020,1745153635546778629
7462522,2040,2164,1815,2032,1745153635546778629
7463522,2030,2158,1891,2035,1745153635546778629
7464522,2011,2139,1932,2057,1745153635546778629
7465522,2002,2107,2016,2081,1745153635546778629
7466522,1981,2075,2106,2107,1745153635546778629
7467522,1961,2060,2185,2126,1745153635546778629
7468522,1926,2060,2252,2121,1745153635546778629
7469523,1896,2061,2285,2097,1745153635546778629
7470523,1875,2053,2287,2084,1745153635546778629
7471523,1873,2056,2272,2113,1745153635546778629
7472523,1889,2059,2237,2155,1745153635546778629
7473523,1923,2067,2210,2191,1745153635546778629
7474523,1963,2072,2186,2209,1745153635546778629
7475523,2009,2037,2168,2201,1745153635546778629
7476523,2057,1980,2136,2176,1745153635546778629
7477523,2097,1929,2096,2130,1745153635546778629
7478523,2140,1902,2052,2069,1745153635546778629
7479523,2174,1898,2001,2011,1745153635546778629
7480523,2201,1899,1960,1968,1745153635546778629
7481524,2213,1900,1935,1941,1745153635546778629
7482524,2203,1908,1919,1922,1745153635546778629
7483524,2178,1933,1928,1913,1745153635546778629
7484524,2141,1955,1940,1909,1745153635546778629
7485524,2095,1982,1967,1921,1745153635546778629
7486524,2040,2001,2002,1926,1745153635546778629
7487524,1984,2005,2052,1941,1745153635546778629
7488524,1929,1998,2105,1964,1745153635546778629
7489524,1877,1973,2161,1988,1745153635605543405
7490524,1844,1934,2198,2010,1745153635605543405
7491524,1825,1897,2216,2023,1745153635605543405
7492524,1821,1880,2205,2025,1745153635605543405
7493525,1831,1888,2172,2021,1745153635605543405
7494525,1850,1915,2130,2018,1745153635605543405
7495525,1878,1944,2077,2020,1745153635605543405
7496525,1913,1969,2016,2025,1745153635605543405
7497525,1950,1978,1956,2027,1745153635605543405
7498525,1998,1968,1899,2033,1745153635605543405
7499525,2044,1954,1851,2037,1745153635605543405
7500525,2082,1941,1825,2048,1745153635605543405
7501525,2106,1941,1814,2070,1745153635605543405
7502525,2113,1957,1819,2092,1745153635605543405
7503525,2107,1989,1845,2103,1745153635605543405
7504525,2081,2014,1892,2094,1745153635605543405
7505526,2042,2026,1940,2073,1745153635605543405
7506526,1999,2023,1995,2056,1745153635605543405
7507526,1960,2013,2056,2041,1745153635605543405
7508526,1914,2011,2100,2050,1745153635605543405
7509526,1869,2028,2127,2058,1745153635605543405
7510526,1873,2100,2129,2032,1745153635605543405
7511526,1802,2084,2110,2016,1745153635605543405
7512526,1807,2117,2072,1983,1745153635605543405
7513526,1814,2140,2013,1954,1745153635605543405
7514526,1831,2155,1960,1929,1745153635605543405
7515526,1856,2165,1895,1937,1745153635605543405
7516526,1892,2173,1842,1966,1745153635605543405
7517527,1943,2160,1799,2020,1745153635605543405
7518527,2005,2138,1770,2078,1745153635605543405
7519527,2067,2116,1758,2124,1745153635605543405
7520527,2116,2096,1774,2150,1745153635605543405
7521527,2146,2078,1814,2150,1745153635605543405
7522527,2162,2061,1860,2131,1745153635605543405
7523527,2163,2041,1910,2108,1745153635605543405
7524527,2138,2017,1957,2087,1745153635605543405
7525527,2112,1989,1996,2079,1745153635605543405
7526527,2078,1963,2040,2066,1745153635605543405
7527527,2033,1948,2088,2053,1745153635605543405
7528527,1981,1946,2135,2029,1745153635605543405
7529528,1933,1956,2177,2009,1745153635605543405
7530528,1893,1974,2197,2011,1745153635605543405
7531528,1867,2004,2206,2054,1745153635605543405
7532528,1859,2030,2201,2112,1745153635605543405
7533528,1860,2053,2181,2164,1745153635605543405
7534528,1876,2065,2153,2200,1745153635605543405
7535528,1894,2069,2122,2208,1745153635605543405
7536528,1921,2072,2084,2195,1745153635605543405
7537528,1955,2062,2052,2181,1745153635605543405
7538528,1992,2045,2025,2166,1745153635605543405
7539528,2022,2035,2018,2153,1745153635605543405
7540528,2043,2042,2026,2133,1745153635605543405
7541529,2053,2075,2056,2119,1745153635605543405
7542529,2052,2117,2090,2127,1745153635605543405
7543529,2039,2145,2126,2153,1745153635605543405
7544529,2016,2153,2158,2176,1745153635605543405
7545529,1985,2138,2184,2172,1745153635605543405
7546529,1953,2109,2222,2131,1745153635605543405
7547529,1914,2084,2260,2079,1745153635666191288
7548529,1876,2073,2300,2027,1745153635666191288
7549529,1838,2067,2324,1967,1745153635666191288
7550529,1819,2061,2339,1917,1745153635666191288
7551529,1818,2039,2338,1872,1745153635666191288
7552529,1832,1998,2332,1844,1745153635666191288
7553530,1859,1947,2314,1825,1745153635666191288
7554530,1897,1913,2292,1825,1745153635666191288
7555530,1934,1906,2266,1842,1745153635666191288
7556530,1978,1921,2244,1881,1745153635666191288
7557530,2026,1941,2214,1926,1745153635666191288
7558530,2081,1958,2190,1974,1745153635666191288
7559530,2128,1971,2181,2016,1745153635666191288
7560530,2172,1982,2188,2043,1745153635666191288
7561530,2196,1994,2201,2061,1745153635666191288
7562530,2202,2003,2224,2060,1745153635666191288
7563530,2192,2008,2255,2060,1745153635666191288
7564531,2171,2007,2292,2066,1745153635666191288
7565531,2139,2001,2323,2071,1745153635666191288
7566531,2106,1995,2377,2057,1745153635666191288
7567531,2049,1992,2389,2040,1745153635666191288
7568531,2011,2000,2408,2052,1745153635666191288
7569531,2003,2037,2395,1962,1745153635666191288
7570531,1917,2073,2380,1954,1745153635666191288
7571531,1891,2125,2338,1966,1745153635666191288
7572531,1886,2157,2284,1996,1745153635666191288
7573531,1899,2164,2220,2036,1745153635666191288
7574531,1936,2136,2179,2092,1745153635666191288
7575531,1994,2080,2145,2132,1745153635666191288
7576531,2057,2024,2110,2153,1745153635666191288
7577532,2117,1989,2070,2151,1745153635666191288
7578532,2174,1977,2029,2133,1745153635666191288
7579532,2217,1977,2001,2124,1745153635666191288
7580532,2244,1978,1994,2113,1745153635666191288
7581532,2258,1974,2002,2116,1745153635666191288
7582532,2253,1966,2027,2117,1745153635666191288
7583532,2234,1961,2053,2112,1745153635666191288
7584532,2202,1958,2068,2098,1745153635666191288
7585532,2167,1966,2077,2082,1745153635666191288
7586532,2121,1993,2085,2064,1745153635666191288
7587532,2068,2033,2101,2044,1745153635666191288
7588532,2009,2077,2120,2037,1745153635666191288
7589533,1955,2127,2129,2049,1745153635666191288
7590533,1921,2177,2129,2069,1745153635666191288
7591533,1899,2228,2116,2077,1745153635666191288
7592533,1900,2268,2093,2072,1745153635666191288
7593533,1913,2289,2061,2062,1745153635666191288
7594533,1935,2288,2023,2048,1745153635666191288
7595533,1970,2251,1992,2031,1745153635666191288
7596533,2012,2189,1964,2026,1745153635666191288
7597533,2064,2131,1933,2034,1745153635666191288
7598533,2117,2080,1903,2039,1745153635666191288
7599533,2161,2036,1885,2042,1745153635666191288
7600533,2196,1997,1873,2031,1745153635666191288
7601534,2209,1952,1868,2020,1745153635666191288
7602534,2206,1914,1871,2006,1745153635666191288
7603534,2194,1900,1886,1993,1745153635666191288
7604534,2164,1904,1905,1982,1745153635666191288
7605534,2124,1906,1931,1973,1745153635720244128
7606534,2084,1905,1964,1956,1745153635720244128
7607534,2040,1910,2001,1948,1745153635720244128
7608534,1989,1933,2019,1941,1745153635720244128
7609534,1948,1966,2022,1939,1745153635720244128
7610534,1920,2005,2006,1929,1745153635720244128
7611534,1904,2032,1964,1922,1745153635720244128
7612534,1900,2061,1905,1917,1745153635720244128
7613535,1908,2081,1842,1916,1745153635720244128
7614535,1929,2093,1794,1922,1745153635720244128
7615535,1955,2093,1757,1941,1745153635720244128
7616535,1985,2100,1725,1971,1745153635720244128
7617535,2025,2116,1705,2014,1745153635720244128
7618535,2070,2126,1701,2062,1745153635720244128
7619535,2118,2128,1720,2106,1745153635720244128
7620535,2149,2129,1756,2141,1745153635720244128
7621535,2170,2139,1808,2173,1745153635720244128
7622535,2172,2155,1859,2189,1745153635720244128
7623535,2155,2169,1908,2194,1745153635720244128
7624536,2130,2166,1946,2195,1745153635720244128
7625536,2099,2141,1972,2200,1745153635720244128
7626536,2064,2123,1985,2193,1745153635720244128
7627536,2016,2080,2022,2171,1745153635720244128
7628536,1960,2071,2051,2126,1745153635720244128
7629536,1901,2095,2092,2113,1745153635720244128
7630536,1851,2054,2021,2013,1745153635720244128
7631536,1818,2073,2009,1970,1745153635720244128
7632536,1813,2085,1984,1939,1745153635720244128
7633536,1828,2088,1960,1925,1745153635720244128
7634536,1870,2071,1936,1931,1745153635720244128
7635536,1912,2055,1920,1954,1745153635720244128
7636536,1966,2042,1894,1988,1745153635720244128
7637537,2025,2034,1860,2021,1745153635720244128
7638537,2081,2037,1822,2053,1745153635720244128
7639537,2130,2040,1792,2063,1745153635720244128
7640537,2162,2035,1777,2048,1745153635720244128
7641537,2179,2021,1778,2036,1745153635720244128
7642537,2184,2012,1786,2016,1745153635720244128
7643537,2168,2003,1802,2005,1745153635720244128
7644537,2139,1990,1832,2008,1745153635720244128
7645537,2101,1981,1863,2016,1745153635720244128
7646537,2060,1970,1900,2028,1745153635720244128
7647537,2015,1970,1940,2034,1745153635720244128
7648537,1973,1977,1969,2027,1745153635720244128
7649538,1934,1989,1992,2003,1745153635720244128
7650538,1905,1996,1995,1977,1745153635720244128
7651538,1888,2002,1984,1965,1745153635720244128
7652538,1888,2001,1968,1985,1745153635720244128
7653538,1909,2009,1953,2027,1745153635720244128
7654538,1948,2018,1938,2068,1745153635720244128
7655538,2001,2032,1926,2087,1745153635720244128
7656538,2054,2043,1908,2092,1745153635720244128
7657538,2113,2059,1881,2089,1745153635720244128
7658538,2168,2072,1851,2082,1745153635720244128
7659538,2219,2078,1836,2070,1745153635720244128
7660538,2258,2086,1832,2064,1745153635720244128
7661539,2279,2085,1838,2065,1745153635720244128
7662539,2280,2078,1849,2072,1745153635720244128
7663539,2268,2065,1867,2082,1745153635782673297
7664539,2243,2050,1885,2089,1745153635782673297
7665539,2210,2033,1909,2090,1745153635782673297
7666539,2173,2019,1933,2084,1745153635782673297
7667539,2131,2027,1971,2075,1745153635782673297
7668539,2090,2049,2005,2061,1745153635782673297
7669539,2049,2062,2028,2053,1745153635782673297
7670539,2018,2052,2038,2060,1745153635782673297
7671539,2003,2020,2032,2092,1745153635782673297
7672539,2005,2001,2016,2126,1745153635782673297
7673540,2018,1997,1997,2152,1745153635782673297
7674540,2039,2025,1975,2172,1745153635782673297
7675540,2073,2066,1952,2191,1745153635782673297
7676540,2104,2128,1918,2205,1745153635782673297
7677540,2146,2195,1875,2209,1745153635782673297
7678540,2174,2264,1825,2189,1745153635782673297
7679540,2206,2296,1786,2155,1745153635782673297
7680541,2228,2286,1758,2124,1745153635782673297
7681540,2234,2248,1759,2093,1745153635782673297
7682540,2221,2214,1773,2064,1745153635782673297
7683540,2197,2238,1836,2033,1745153635782673297
7684540,2148,2146,1833,1988,1745153635782673297
7685541,2107,2124,1883,1948,1745153635782673297
7686541,2064,2083,1925,1915,1745153635782673297
7687541,2016,2037,1972,1904,1745153635782673297
7688541,1971,2005,2002,1891,1745153635782673297
7689541,1934,2010,2026,1902,1745153635782673297
7690541,1897,2018,2030,1915,1745153635782673297
7691541,1876,2034,2019,1938,1745153635782673297
7692541,1866,2048,2001,1961,1745153635782673297
7693541,1872,2062,1988,1992,1745153635782673297
7694541,1893,2085,1982,2034,1745153635782673297
7695541,1926,2108,1978,2087,1745153635782673297
7696541,1978,2131,1964,2124,1745153635782673297
7697542,2032,2137,1947,2131,1745153635782673297
7698542,2088,2116,1914,2120,1745153635782673297
7699542,2137,2066,1881,2093,1745153635782673297
7700542,2174,2024,1857,2064,1745153635782673297
7701542,2194,2015,1840,2049,1745153635782673297
7702542,2190,2025,1833,2048,1745153635782673297
7703542,2163,2035,1838,2064,1745153635782673297
7704542,2124,2037,1855,2085,1745153635782673297
7705542,2080,2020,1876,2104,1745153635782673297
7706542,2029,2004,1908,2124,1745153635782673297
7707542,1973,1993,1947,2136,1745153635782673297
7708542,1922,1989,1988,2142,1745153635782673297
7709543,1874,1976,2017,2132,1745153635782673297
7710543,1847,1961,2037,2108,1745153635782673297
7711543,1837,1951,2040,2083,1745153635782673297
7712543,1842,1954,2020,2074,1745153635782673297
7713543,1860,1974,1991,2077,1745153635782673297
7714543,1890,2001,1960,2078,1745153635782673297
7715543,1925,2029,1926,2078,1745153635782673297
7716543,1970,2050,1885,2081,1745153635782673297
7717543,2011,2061,1838,2084,1745153635782673297
7718543,2060,2067,1791,2077,1745153635782673297
7719543,2094,2075,1749,2072,1745153635782673297
7720543,2120,2092,1716,2061,1745153635782673297
7721544,2131,2109,1696,2035,1745153635852308911
7722544,2130,2125,1681,2000,1745153635852308911
7723544,2115,2132,1676,1963,1745153635852308911
7724544,2090,2131,1679,1936,1745153635852308911
7725544,2057,2139,1685,1942,1745153635852308911
7726544,2016,2142,1703,1974,1745153635852308911
7727544,1968,2146,1744,2013,1745153635852308911
7728544,1920,2147,1809,2050,1745153635852308911
7729544,1879,2134,1891,2080,1745153635852308911
7730544,1852,2100,1971,2102,1745153635852308911
7731544,1843,2067,2034,2115,1745153635852308911
7732544,1857,2037,2077,2106,1745153635852308911
7733545,1885,2005,2089,2084,1745153635852308911
7734545,1929,1971,2084,2051,1745153635852308911
7735545,1981,1943,2073,2019,1745153635852308911
7736545,2038,1920,2038,1996,1745153635852308911
7737545,2100,1881,2003,1982,1745153635852308911
7738545,2164,1846,1962,1980,1745153635852308911
7739546,2214,1842,1934,1984,1745153635852308911
7740545,2243,1867,1922,1987,1745153635852308911
7741545,2264,1925,1917,1992,1745153635852308911
7742545,2257,1981,1913,2000,1745153635852308911
7743546,2232,2032,1917,2012,1745153635852308911
7744545,2203,2089,1946,2021,1745153635852308911
7745546,2162,2142,1933,2089,1745153635852308911
7746546,2172,2212,1932,2061,1745153635852308911
7747546,2068,2148,1948,2098,1745153635852308911
7748546,2025,2106,1962,2107,1745153635852308911
7749546,1979,2092,1972,2100,1745153635852308911
7750546,1944,2127,1969,2070,1745153635852308911
7751546,1923,2172,1978,2040,1745153635852308911
7752546,1929,2188,1976,2004,1745153635852308911
7753546,1949,2153,1974,1981,1745153635852308911
7754546,1990,2107,1973,1974,1745153635852308911
7755546,2030,2075,1974,1997,1745153635852308911
7756546,2081,2061,1968,2035,1745153635852308911
7757547,2126,2071,1950,2083,1745153635852308911
7758547,2174,2086,1920,2124,1745153635852308911
7759547,2210,2103,1894,2144,1745153635852308911
7760547,2234,2096,1867,2138,1745153635852308911
7761547,2243,2061,1857,2112,1745153635852308911
7762547,2237,2012,1853,2074,1745153635852308911
7763547,2217,1956,1860,2033,1745153635852308911
7764547,2188,1916,1878,1995,1745153635852308911
7765547,2148,1904,1901,1971,1745153635852308911
7766547,2105,1918,1938,1953,1745153635852308911
7767547,2054,1942,1978,1936,1745153635852308911
7768547,1997,1969,2024,1929,1745153635852308911
7769548,1957,1993,2060,1925,1745153635852308911
7770548,1926,2012,2083,1934,1745153635852308911
7771548,1909,2034,2085,1966,1745153635852308911
7772548,1906,2052,2069,2008,1745153635852308911
7773548,1915,2074,2042,2059,1745153635852308911
7774548,1933,2104,2002,2117,1745153635852308911
7775548,1953,2138,1965,2158,1745153635852308911
7776548,1981,2173,1913,2172,1745153635852308911
7777548,2012,2213,1869,2161,1745153635852308911
7778548,2052,2248,1828,2146,1745153635852308911
7779548,2084,2268,1814,2138,1745153635907950851
7780548,2110,2265,1819,2138,1745153635907950851
7781549,2125,2243,1844,2140,1745153635907950851
7782549,2122,2206,1884,2133,1745153635907950851
7783549,2113,2155,1939,2120,1745153635907950851
7784549,2095,2086,1994,2107,1745153635907950851
7785549,2074,2021,2056,2090,1745153635907950851
7786549,2041,1969,2106,2076,1745153635907950851
7787549,2004,1929,2147,2066,1745153635907950851
7788549,1966,1901,2177,2074,1745153635907950851
7789549,1930,1889,2188,2099,1745153635907950851
7790549,1904,1892,2179,2131,1745153635907950851
7791549,1888,1913,2156,2137,1745153635907950851
7792549,1890,1944,2121,2112,1745153635907950851
7793550,1909,1988,2076,2076,1745153635907950851
7794550,1931,2040,2024,2033,1745153635907950851
7795550,1962,2085,1969,2001,1745153635907950851
7796550,2002,2106,1913,1979,1745153635907950851
7797550,2053,2094,1853,1978,1745153635907950851
7798551,2091,2078,1816,1982,1745153635907950851
7799550,2130,2067,1803,1989,1745153635907950851
7800550,2150,2082,1828,1982,1745153635907950851
7801550,2164,2093,1870,1967,1745153635907950851
7802551,2153,2104,1923,1947,1745153635907950851
7803550,2133,2088,1980,1925,1745153635907950851
7804550,2113,2042,2043,1906,1745153635907950851
7805551,2100,1980,2107,1896,1745153635907950851
7806551,2083,1921,2171,1884,1745153635907950851
7807551,2053,1878,2228,1873,1745153635907950851
7808551,2024,1851,2264,1870,1745153635907950851
7809551,1982,1840,2280,1876,1745153635907950851
7810551,1958,1846,2265,1907,1745153635907950851
7811551,1941,1871,2228,1953,1745153635907950851
7812551,1940,1900,2184,2011,1745153635907950851
7813551,1949,1940,2118,2073,1745153635907950851
7814551,1974,1987,2048,2118,1745153635907950851
7815551,2004,2041,2013,2169,1745153635907950851
7816551,2032,2086,1876,2085,1745153635907950851
7817552,2069,2150,1813,2066,1745153635907950851
7818552,2114,2193,1756,2028,1745153635907950851
7819552,2155,2205,1728,1994,1745153635907950851
7820552,2192,2180,1732,1974,1745153635907950851
7821552,2221,2115,1778,1972,1745153635907950851
7822552,2233,2026,1854,1978,1745153635907950851
7823552,2252,1953,1945,1988,1745153635907950851
7824552,2212,1913,2048,1998,1745153635907950851
7825552,2180,1906,2126,1999,1745153635907950851
7826552,2140,1910,2182,2006,1745153635907950851
7827552,2088,1927,2228,2008,1745153635907950851
7828552,2030,1942,2251,2015,1745153635907950851
7829553,1980,1961,2259,2019,1745153635907950851
7830553,1947,1979,2242,2034,1745153635907950851
7831553,1933,2005,2216,2049,1745153635907950851
7832553,1926,2037,2173,2067,1745153635907950851
7833553,1937,2077,2131,2100,1745153635907950851
7834553,1957,2120,2086,2139,1745153635907950851
7835553,1986,2160,2048,2181,1745153635907950851
7836553,2024,2194,2009,2216,1745153635907950851
7837553,2068,2221,1970,2238,1745153635956874727
7838553,2118,2237,1933,2230,1745153635956874727
7839553,2163,2241,1908,2200,1745153635956874727
7840553,2201,2225,1891,2147,1745153635956874727
7841554,2220,2189,1884,2097,1745153635956874727
7842554,2224,2134,1892,2061,1745153635956874727
7843554,2212,2083,1916,2041,1745153635956874727
7844554,2188,2038,1945,2021,1745153635956874727
7845554,2150,2010,1981,2009,1745153635956874727
7846554,2108,1990,2029,1998,1745153635956874727
7847554,2060,1974,2086,1984,1745153635956874727
7848554,2015,1957,2136,1963,1745153635956874727
7849554,1976,1945,2163,1933,1745153635956874727
7850554,1951,1932,2169,1903,1745153635956874727
7851554,1940,1932,2160,1893,1745153635956874727
7852554,1940,1953,2137,1901,1745153635956874727
7853555,1957,1993,2118,1926,1745153635956874727
7854555,1979,2037,2097,1969,1745153635956874727
7855555,2011,2073,2075,2039,1745153635956874727
7856555,2053,2091,2038,2144,1745153635956874727
7857555,2099,2096,1993,2259,1745153635956874727
7858555,2149,2094,1953,2354,1745153635956874727
7859555,2192,2121,1921,2400,1745153635956874727
7860555,2212,2171,1902,2366,1745153635956874727
7861555,2213,2222,1895,2260,1745153635956874727
7862555,2197,2246,1902,2128,1745153635956874727
7863555,2172,2218,1925,2015,1745153635956874727
7864555,2141,2161,1965,1955,1745153635956874727
7865556,2115,2096,2031,1926,1745153635956874727
7866556,2089,2034,2112,1920,1745153635956874727
7867556,2059,1991,2192,1935,1745153635956874727
7868556,2021,1966,2251,1965,1745153635956874727
7869556,1986,1949,2286,2003,1745153635956874727
7870556,1958,1948,2297,2049,1745153635956874727
7871556,1984,1995,2284,2070,1745153635956874727
7872556,1924,1971,2235,2099,1745153635956874727
7873556,1950,1994,2195,2101,1745153635956874727
7874556,1974,2011,2154,2093,1745153635956874727
7875556,2005,2023,2115,2072,1745153635956874727
7876556,2043,2035,2071,2034,1745153635956874727
7877557,2086,2048,2026,1987,1745153635956874727
7878557,2136,2074,1994,1945,1745153635956874727
7879557,2171,2108,1973,1908,1745153635956874727
7880557,2196,2146,1975,1885,1745153635956874727
7881557,2202,2161,1994,1882,1745153635956874727
7882557,2197,2124,2016,1908,1745153635956874727
7883557,2179,2066,2033,1961,1745153635956874727
7884557,2153,2015,2052,2020,1745153635956874727
7885557,2120,1986,2072,2065,1745153635956874727
7886557,2076,1978,2099,2095,1745153635956874727
7887557,2020,1982,2134,2109,1745153635956874727
7888557,1961,1994,2162,2106,1745153635956874727
7889558,1909,2008,2190,2084,1745153635956874727
7890558,1874,2030,2204,2056,1745153635956874727
7891558,1859,2058,2204,2025,1745153635956874727
7892558,1858,2087,2200,1998,1745153635956874727
7893558,1872,2114,2181,1987,1745153635956874727
7894558,1897,2129,2152,2001,1745153635956874727
7895558,1928,2140,2110,2035,1745153636034539642
7896558,1968,2145,2061,2112,1745153636034539642
7897558,2014,2129,2009,2197,1745153636034539642
7898558,2068,2101,1958,2253,1745153636034539642
7899558,2113,2070,1929,2274,1745153636034539642
7900558,2144,2062,1914,2265,1745153636034539642
7901559,2153,2085,1917,2234,1745153636034539642
7902559,2146,2123,1934,2189,1745153636034539642
7903559,2129,2150,1963,2148,1745153636034539642
7904559,2101,2147,1996,2109,1745153636034539642
7905559,2073,2124,2032,2089,1745153636034539642
7906559,2036,2094,2075,2075,1745153636034539642
7907559,1992,2076,2114,2075,1745153636034539642
7908559,1948,2064,2136,2070,1745153636034539642
7909559,1906,2060,2145,2067,1745153636034539642
7910559,1879,2060,2138,2044,1745153636034539642
7911559,1865,2066,2126,2014,1745153636034539642
7912559,1866,2073,2113,1978,1745153636034539642
7913560,1885,2071,2107,1948,1745153636034539642
7914560,1916,2057,2093,1916,1745153636034539642
7915560,1963,2040,2077,1900,1745153636034539642
7916560,2016,2040,2058,1893,1745153636034539642
7917560,2076,2056,2041,1900,1745153636034539642
7918560,2131,2061,2027,1920,1745153636034539642
7919560,2182,2051,2025,1953,1745153636034539642
7920560,2259,2074,2036,1965,1745153636034539642
7921560,2211,2014,2061,1992,1745153636034539642
7922560,2214,2018,2088,2007,1745153636034539642
7923560,2194,2037,2108,2018,1745153636034539642
7924560,2164,2068,2132,2023,1745153636034539642
7925561,2136,2083,2179,2028,1745153636034539642
7926561,2092,2093,2187,2065,1745153636034539642
7927561,2056,2115,2219,2089,1745153636034539642
7928561,2008,2131,2242,2137,1745153636034539642
7929561,1970,2124,2249,2188,1745153636034539642
7930561,1942,2097,2237,2230,1745153636034539642
7931561,1930,2062,2211,2258,1745153636034539642
7932561,1931,2037,2170,2280,1745153636034539642
7933561,1940,2038,2128,2289,1745153636034539642
7934561,1960,2052,2092,2290,1745153636034539642
7935561,1987,2063,2048,2270,1745153636034539642
7936561,2017,2069,2002,2228,1745153636034539642
7937562,2057,2083,1961,2154,1745153636034539642
7938562,2096,2114,1928,2070,1745153636034539642
7939562,2129,2141,1907,1986,1745153636034539642
7940562,2147,2152,1905,1900,1745153636034539642
7941562,2154,2148,1920,1827,1745153636034539642
7942562,2145,2138,1941,1774,1745153636034539642
7943562,2124,2123,1970,1760,1745153636034539642
7944562,2094,2112,1998,1769,1745153636034539642
7945562,2056,2105,2026,1789,1745153636034539642
7946562,2006,2099,2064,1809,1745153636034539642
7947562,1958,2098,2102,1830,1745153636034539642
7948562,1913,2090,2141,1846,1745153636034539642
7949563,1875,2079,2176,1878,1745153636034539642
7950563,1858,2063,2186,1926,1745153636034539642
7951563,1859,2052,2190,1992,1745153636034539642
7952563,1876,2042,2187,2052,1745153636034539642
7953563,1906,2042,2166,2101,1745153636137693804
7954563,1940,2049,2139,2147,1745153636137693804
7955563,1984,2057,2105,2209,1745153636137693804
7956563,2028,2072,2060,2272,1745153636137693804
7957563,2078,2099,2005,2317,1745153636137693804
7958563,2126,2126,1967,2314,1745153636137693804
7959563,2161,2128,1938,2254,1745153636137693804
7960563,2184,2086,1921,2156,1745153636137693804
7961564,2185,2048,1913,2049,1745153636137693804
7962564,2173,2028,1909,1944,1745153636137693804
7963564,2144,2035,1913,1862,1745153636137693804
7964564,2108,2042,1931,1819,1745153636137693804
7965564,2068,2031,1963,1814,1745153636137693804
7966564,2029,2010,2024,1850,1745153636137693804
7967564,1983,1995,2109,1905,1745153636137693804
7968564,1944,1989,2196,1966,1745153636137693804
7969564,1916,1985,2276,2021,1745153636137693804
7970564,1901,1975,2326,2054,1745153636137693804
7971564,1904,1965,2346,2070,1745153636137693804
7972565,1923,1953,2335,2078,1745153636137693804
7973565,1948,1945,2297,2088,1745153636137693804
7974565,1984,1949,2254,2101,1745153636137693804
7975565,2024,1964,2201,2117,1745153636137693804
7976565,2069,1990,2156,2137,1745153636137693804
7977566,2118,2028,2117,2146,1745153636137693804
7978565,2163,2064,2090,2147,1745153636137693804
7979566,2197,2078,2074,2144,1745153636137693804
7980565,2219,2117,2058,2116,1745153636137693804
7981565,2217,2134,2048,2076,1745153636137693804
7982565,2201,2137,2037,2034,1745153636137693804
7983566,2171,2133,2035,1990,1745153636137693804
7984565,2130,2123,2040,1958,1745153636137693804
7985566,2086,2120,2052,1948,1745153636137693804
7986566,2033,2141,2072,1951,1745153636137693804
7987566,1976,2169,2099,1977,1745153636137693804
7988566,1921,2190,2120,2022,1745153636137693804
7989566,1872,2197,2125,2069,1745153636137693804
7990566,1841,2186,2127,2101,1745153636137693804
7991566,1825,2161,2117,2116,1745153636137693804
7992566,1826,2149,2098,2098,1745153636137693804
7993566,1853,2142,2081,2085,1745153636137693804
7994566,1888,2105,2073,2079,1745153636137693804
7995566,1941,2048,2051,2088,1745153636137693804
7996566,2003,1995,2042,2086,1745153636137693804
7997567,2067,1956,2077,2086,1745153636137693804
7998567,2116,1941,2011,2073,1745153636137693804
7999567,2165,1966,2009,2070,1745153636137693804
8000567,2196,1987,2009,2073,1745153636137693804
8001567,2212,2006,2016,2081,1745153636137693804
8002567,2209,2020,2039,2091,1745153636137693804
8003567,2185,2026,2057,2082,1745153636137693804
8004567,2146,2030,2088,2078,1745153636137693804
8005567,2122,2041,2099,2050,1745153636137693804
8006567,2114,2054,2102,2005,1745153636137693804
8007567,2016,2042,2108,1980,1745153636137693804
8008567,1966,2048,2103,1943,1745153636137693804
8009568,1924,2055,2090,1928,1745153636137693804
8010568,1889,2068,2076,1934,1745153636137693804
8011568,1878,2080,2058,1960,1745153636151068370
8012568,1878,2084,2044,1998,1745153636151068370
8013569,1902,2097,2034,2050,1745153636151068370
8014568,1940,2106,2048,2090,1745153636151068370
8015568,1992,2102,2059,2117,1745153636151068370
8016568,2054,2091,2065,2147,1745153636151068370
8017568,2117,2069,2066,2181,1745153636151068370
8018568,2181,2045,2059,2201,1745153636151068370
8019568,2228,2022,2058,2214,1745153636151068370
8020568,2261,2008,2065,2198,1745153636151068370
8021569,2272,2012,2086,2168,1745153636151068370
8022569,2267,2036,2110,2121,1745153636151068370
8023569,2240,2060,2128,2067,1745153636151068370
8024569,2208,2066,2147,2017,1745153636151068370
8025569,2167,2054,2160,1973,1745153636151068370
8026569,2118,2029,2170,1956,1745153636151068370
8027569,2065,2005,2186,1947,1745153636151068370
8028569,2011,1985,2198,1957,1745153636151068370
8029569,1969,1963,2201,1966,1745153636151068370
8030569,1938,1941,2194,1973,1745153636151068370
8031569,1926,1932,2174,1974,1745153636151068370
8032569,1932,1955,2147,1974,1745153636151068370
8033570,1942,2005,2122,1967,1745153636151068370
8034570,1970,2063,2098,1966,1745153636151068370
8035570,2005,2114,2078,1965,1745153636151068370
8036571,2048,2156,2053,1976,1745153636151068370
8037570,2094,2189,2029,2000,1745153636151068370
8038570,2143,2207,2009,2030,1745153636151068370
8039570,2176,2205,2004,2080,1745153636151068370
8040570,2197,2194,2006,2130,1745153636151068370
8041570,2196,2186,2010,2179,1745153636151068370
8042570,2181,2182,2015,2210,1745153636151068370
8043570,2147,2184,2018,2225,1745153636151068370
8044570,2107,2190,2016,2212,1745153636151068370
8045571,2059,2195,2011,2173,1745153636151068370
8046571,2003,2176,2008,2102,1745153636151068370
8047571,1950,2124,2022,2017,1745153636151068370
8048571,1902,2057,2036,1949,1745153636151068370
8049571,1876,1996,2072,1928,1745153636151068370
8050571,1869,1945,2095,1926,1745153636151068370
8051571,1878,1920,2122,1930,1745153636151068370
8052571,1906,1909,2152,1940,1745153636151068370
8053571,1938,1910,2171,1956,1745153636151068370
8054571,1980,1921,2185,1985,1745153636151068370
8055571,2024,1943,2176,2029,1745153636151068370
8056571,2073,1981,2141,2073,1745153636151068370
8057572,2119,2025,2088,2105,1745153636151068370
8058572,2157,2077,2027,2125,1745153636151068370
8059572,2181,2124,1968,2153,1745153636151068370
8060572,2187,2174,1928,2181,1745153636151068370
8061572,2176,2220,1894,2194,1745153636151068370
8062572,2146,2256,1866,2195,1745153636151068370
8063572,2112,2272,1856,2180,1745153636151068370
8064572,2069,2252,1864,2163,1745153636151068370
8065572,2036,2186,1904,2136,1745153636151068370
8066572,2006,2093,1980,2107,1745153636151068370
8067572,1979,2020,2073,2064,1745153636151068370
8068572,1952,1986,2158,2018,1745153636151068370
8069573,1923,1976,2222,1981,1745153636215855694
8070573,1910,1977,2258,1954,1745153636215855694
8071573,1909,1974,2256,1934,1745153636215855694
8072573,1928,1971,2233,1917,1745153636215855694
8073573,1958,1964,2195,1910,1745153636215855694
8074573,2000,1967,2157,1910,1745153636215855694
8075573,2051,1977,2123,1920,1745153636215855694
8076573,2107,1987,2087,1942,1745153636215855694
8077573,2166,1997,2061,1969,1745153636215855694
8078573,2221,2006,2048,1995,1745153636215855694
8079573,2266,2016,2049,2024,1745153636215855694
8080573,2291,2017,2064,2051,1745153636215855694
8081574,2301,2012,2081,2080,1745153636215855694
8082574,2294,2004,2096,2107,1745153636215855694
8083574,2272,1998,2110,2132,1745153636215855694
8084574,2236,2000,2120,2140,1745153636215855694
8085574,2187,2011,2136,2136,1745153636215855694
8086574,2130,2030,2153,2107,1745153636215855694
8087574,2066,2043,2169,2068,1745153636215855694
8088574,2000,2051,2178,2018,1745153636215855694
8089574,1949,2042,2169,1966,1745153636215855694
8090574,1916,2034,2146,1922,1745153636215855694
8091574,1899,2036,2118,1890,1745153636215855694
8092574,1897,2048,2081,1882,1745153636215855694
8093575,1908,2059,2049,1903,1745153636215855694
8094576,1929,2068,2023,1960,1745153636215855694
8095575,1963,2089,2006,2029,1745153636215855694
8096575,2004,2104,1986,2090,1745153636215855694
8097575,2052,2120,1969,2134,1745153636215855694
8098575,2099,2168,1946,2147,1745153636215855694
8099575,2184,2200,1981,2147,1745153636215855694
8100575,2148,2162,1933,2179,1745153636215855694
8101575,2219,2165,1930,2090,1745153636215855694
8102575,2166,2145,1955,2077,1745153636215855694
8103575,2154,2107,1982,2068,1745153636215855694
8104575,2134,2062,2009,2068,1745153636215855694
8105576,2106,2020,2038,2069,1745153636215855694
8106576,2076,1987,2080,2065,1745153636215855694
8107576,2040,1966,2123,2054,1745153636215855694
8108576,2001,1957,2146,2038,1745153636215855694
8109576,1976,1961,2152,2021,1745153636215855694
8110576,1963,1971,2142,2003,1745153636215855694
8111576,1968,1985,2120,1981,1745153636215855694
8112576,1980,1996,2093,1972,1745153636215855694
8113576,2006,2006,2066,1980,1745153636215855694
8114576,2038,2020,2033,1997,1745153636215855694
8115576,2073,2062,2006,2018,1745153636215855694
8116576,2108,2052,1974,2042,1745153636215855694
8117577,2148,2064,1938,2063,1745153636215855694
8118577,2181,2073,1936,2069,1745153636215855694
8119577,2189,2072,1887,2056,1745153636215855694
8120577,2229,2065,1878,2059,1745153636215855694
8121577,2182,2059,1890,2040,1745153636215855694
8122577,2152,2058,1942,2048,1745153636215855694
8123577,2102,2058,1936,2032,1745153636215855694
8124577,2064,2074,1944,1990,1745153636215855694
8125577,2013,2107,1958,2010,1745153636215855694
8126577,1958,2132,1960,2034,1745153636215855694
8127577,1904,2151,1967,2059,1745153636255344657
8128577,1852,2158,1973,2099,1745153636255344657
8129578,1814,2160,1991,2149,1745153636255344657
8130578,1794,2156,2025,2214,1745153636255344657
8131578,1792,2146,2062,2285,1745153636255344657
8132578,1808,2138,2090,2326,1745153636255344657
8133578,1844,2131,2112,2326,1745153636255344657
8134578,1888,2136,2112,2268,1745153636255344657
8135578,1928,2146,2096,2189,1745153636255344657
8136578,1978,2161,2050,2101,1745153636255344657
8137578,2026,2176,2005,2017,1745153636255344657
8138578,2080,2185,1976,1960,1745153636255344657
8139578,2122,2178,1972,1934,1745153636255344657
8140578,2150,2158,1988,1944,1745153636255344657
8141579,2168,2128,2027,1978,1745153636255344657
8142579,2170,2088,2079,2022,1745153636255344657
8143579,2157,2050,2128,2050,1745153636255344657
8144579,2129,2027,2161,2040,1745153636255344657
8145579,2089,2026,2180,2002,1745153636255344657
8146579,2043,2033,2187,1952,1745153636255344657
8147579,2000,2038,2184,1910,1745153636255344657
8148579,1948,2034,2162,1893,1745153636255344657
8149579,1913,2019,2136,1903,1745153636255344657
8150579,1894,1993,2110,1934,1745153636255344657
8151579,1891,1964,2088,1978,1745153636255344657
8152580,1907,1943,2072,2013,1745153636255344657
8153580,1932,1935,2060,2035,1745153636255344657
8154580,1965,1944,2052,2041,1745153636255344657
8155580,2009,1963,2038,2042,1745153636255344657
8156580,2063,1986,2016,2042,1745153636255344657
8157580,2125,2004,1988,2050,1745153636255344657
8158580,2186,2018,1976,2063,1745153636255344657
8159580,2243,2026,1965,2078,1745153636255344657
8160580,2282,2028,1972,2092,1745153636255344657
8161580,2302,2036,1988,2106,1745153636255344657
8162580,2306,2028,2008,2107,1745153636255344657
8163580,2296,2017,2033,2104,1745153636255344657
8164580,2262,2004,2066,2089,1745153636255344657
8165581,2217,2000,2096,2072,1745153636255344657
8166581,2163,1997,2126,2048,1745153636255344657
8167581,2098,2004,2157,2026,1745153636255344657
8168581,2036,2014,2177,2018,1745153636255344657
8169581,1986,2033,2178,2025,1745153636255344657
8170581,1946,2057,2164,2049,1745153636255344657
8171581,1923,2083,2142,2077,1745153636255344657
8172581,1913,2113,2112,2105,1745153636255344657
8173581,1921,2140,2078,2124,1745153636255344657
8174581,1936,2157,2044,2126,1745153636255344657
8175581,1960,2164,2004,2124,1745153636255344657
8176581,1997,2158,1964,2115,1745153636255344657
8177582,2037,2153,1925,2108,1745153636255344657
8178582,2080,2142,1898,2091,1745153636255344657
8179582,2155,2156,1870,2061,1745153636255344657
8180582,2116,2098,1883,2051,1745153636255344657
8181582,2118,2084,1908,2032,1745153636255344657
8182582,2101,2072,1940,2018,1745153636255344657
8183582,2076,2062,1989,2012,1745153636255344657
8184582,2048,2048,2034,1999,1745153636255344657
8185582,2019,2029,2093,1988,1745153636378877278
8186582,1985,2017,2149,1973,1745153636378877278
8187582,1955,1996,2205,1974,1745153636378877278
8188582,1913,2002,2246,1970,1745153636378877278
8189583,1883,2003,2259,1974,1745153636378877278
8190583,1874,2011,2248,1978,1745153636378877278
8191583,1872,2024,2220,1981,1745153636378877278
8192583,1887,2041,2189,1988,1745153636378877278
8193583,1913,2060,2157,1996,1745153636378877278
8194583,1946,2076,2130,2002,1745153636378877278
8195583,1989,2085,2105,2012,1745153636378877278
8196583,2038,2100,2068,2028,1745153636378877278
8197583,2098,2118,2027,2054,1745153636378877278
8198583,2155,2134,1984,2095,1745153636378877278
8199583,2200,2150,1953,2161,1745153636378877278
8200583,2229,2170,1931,2234,1745153636378877278
8201584,2243,2189,1913,2300,1745153636378877278
8202584,2242,2210,1900,2337,1745153636378877278
8203584,2229,2228,1892,2321,1745153636378877278
8204584,2211,2242,1885,2273,1745153636378877278
8205584,2191,2234,1892,2193,1745153636378877278
8206584,2164,2200,1902,2105,1745153636378877278
8207584,2133,2147,1922,2020,1745153636378877278
8208584,2099,2092,1947,1958,1745153636378877278
8209584,2076,2040,1969,1920,1745153636378877278
8210584,2072,1995,1995,1906,1745153636378877278
8211584,2077,1958,2018,1907,1745153636378877278
8212584,2100,1926,2031,1907,1745153636378877278
8213585,2133,1909,2032,1912,1745153636378877278
8214585,2172,1901,2021,1921,1745153636378877278
8215585,2213,1897,1994,1930,1745153636378877278
8216586,2257,1899,1961,1947,1745153636378877278
8217585,2299,1904,1932,1968,1745153636378877278
8218586,2335,1905,1894,2040,1745153636378877278
8219585,2354,1902,1870,2013,1745153636378877278
8220585,2333,1915,1881,2049,1745153636378877278
8221585,2298,1929,1902,2070,1745153636378877278
8222585,2244,1943,1938,2085,1745153636378877278
8223585,2184,1950,1982,2085,1745153636378877278
8224585,2114,1960,2032,2077,1745153636378877278
8225586,2042,1967,2086,2065,1745153636378877278
8226586,1967,1968,2139,2044,1745153636378877278
8227586,1904,1979,2195,2018,1745153636378877278
8228586,1844,1998,2229,1993,1745153636378877278
8229586,1805,2026,2243,1968,1745153636378877278
8230586,1784,2058,2250,1948,1745153636378877278
8231586,1787,2086,2248,1938,1745153636378877278
8232586,1813,2111,2252,1934,1745153636378877278
8233586,1859,2133,2267,1936,1745153636378877278
8234586,1914,2149,2273,1938,1745153636378877278
8235586,1976,2162,2265,1949,1745153636378877278
8236586,2038,2173,2237,1966,1745153636378877278
8237587,2102,2174,2190,1992,1745153636378877278
8238587,2152,2176,2146,2032,1745153636378877278
8239587,2182,2169,2100,2081,1745153636378877278
8240587,2185,2161,2053,2128,1745153636378877278
8241587,2162,2145,2012,2164,1745153636378877278
8242587,2122,2133,1982,2184,1745153636378877278
8243587,2063,2120,1964,2170,1745153636391323519
8244587,1995,2108,1956,2141,1745153636391323519
8245587,1924,2088,1964,2095,1745153636391323519
8246587,1861,2049,1996,2044,1745153636391323519
8247587,1795,2003,2042,1995,1745153636391323519
8248587,1745,1961,2092,1950,1745153636391323519
8249588,1706,1936,2125,1915,1745153636391323519
8250588,1685,1930,2138,1899,1745153636391323519
8251588,1686,1939,2130,1899,1745153636391323519
8252588,1701,1960,2105,1905,1745153636391323519
8253588,1736,1989,2067,1924,1745153636391323519
8254588,1779,2017,2030,1947,1745153636391323519
8255588,1836,2041,1997,1981,1745153636391323519
8256588,1904,2061,1958,2020,1745153636391323519
8257588,1981,2071,1920,2059,1745153636391323519
8258588,2060,2083,1888,2093,1745153636391323519
8259588,2124,2095,1877,2116,1745153636391323519
8260588,2178,2103,1880,2132,1745153636391323519
8261589,2212,2105,1891,2142,1745153636391323519
8262589,2220,2100,1908,2143,1745153636391323519
8263589,2210,2090,1934,2142,1745153636391323519
8264589,2178,2081,1958,2132,1745153636391323519
8265589,2132,2074,1985,2117,1745153636391323519
8266589,2074,2067,2020,2100,1745153636391323519
8267589,2004,2066,2048,2083,1745153636391323519
8268589,1939,2072,2075,2063,1745153636391323519
8269589,1889,2079,2088,2040,1745153636391323519
8270589,1857,2093,2082,2020,1745153636391323519
8271589,1840,2112,2070,2006,1745153636391323519
8272589,1842,2129,2049,1996,1745153636391323519
8273590,1855,2152,2028,1988,1745153636391323519
8274590,1881,2178,2009,1984,1745153636391323519
8275590,1906,2198,1993,1988,1745153636391323519
8276590,1960,2217,1976,2005,1745153636391323519
8277590,2024,2239,1975,2026,1745153636391323519
8278590,2083,2250,1971,2055,1745153636391323519
8279590,2127,2251,1968,2076,1745153636391323519
8280590,2157,2244,1978,2076,1745153636391323519
8281590,2172,2229,1992,2061,1745153636391323519
8282591,2177,2208,2003,2037,1745153636391323519
8283590,2180,2177,2017,2021,1745153636391323519
8284590,2188,2136,2035,2013,1745153636391323519
8285591,2197,2094,2068,2020,1745153636391323519
8286591,2197,2053,2108,2038,1745153636391323519
8287591,2189,2021,2158,2067,1745153636391323519
8288591,2173,2001,2195,2091,1745153636391323519
8289591,2156,1992,2217,2106,1745153636391323519
8290591,2143,1996,2216,2104,1745153636391323519
8291591,2129,2001,2195,2084,1745153636391323519
8292591,2124,2014,2154,2057,1745153636391323519
8293591,2120,2029,2099,2026,1745153636391323519
8294591,2122,2044,2034,1996,1745153636391323519
8295591,2129,2058,1965,1976,1745153636391323519
8296591,2144,2082,1890,1961,1745153636391323519
8297592,2162,2107,1822,1965,1745153636391323519
8298592,2189,2125,1780,1981,1745153636391323519
8299592,2208,2132,1753,2004,1745153636391323519
8300592,2212,2133,1752,2033,1745153636391323519
8301592,2196,2132,1757,2066,1745153636433505269
8302592,2165,2131,1765,2090,1745153636433505269
8303592,2120,2133,1777,2101,1745153636433505269
8304592,2064,2136,1788,2104,1745153636433505269
8305592,2004,2139,1811,2096,1745153636433505269
8306592,1944,2139,1840,2072,1745153636433505269
8307592,1883,2139,1877,2029,1745153636433505269
8308592,1830,2140,1914,1989,1745153636433505269
8309593,1797,2140,1936,1940,1745153636433505269
8310593,1793,2137,1952,1893,1745153636433505269
8311593,1812,2125,1952,1864,1745153636433505269
8312593,1856,2112,1947,1861,1745153636433505269
8313593,1915,2098,1931,1878,1745153636433505269
8314593,1979,2086,1913,1910,1745153636433505269
8315593,2043,2080,1893,1948,1745153636433505269
8316593,2113,2068,1861,1987,1745153636433505269
8317593,2182,2053,1828,2038,1745153636433505269
8318593,2248,2034,1806,2086,1745153636433505269
8319593,2301,2017,1803,2122,1745153636433505269
8320593,2340,2003,1818,2141,1745153636433505269
8321594,2366,1989,1844,2147,1745153636433505269
8322594,2376,1980,1885,2153,1745153636433505269
8323594,2369,1970,1931,2161,1745153636433505269
8324594,2348,1961,1970,2153,1745153636433505269
8325594,2316,1948,2014,2130,1745153636433505269
8326594,2280,1931,2061,2091,1745153636433505269
8327594,2236,1911,2099,2034,1745153636433505269
8328594,2192,1892,2125,1972,1745153636433505269
8329594,2148,1875,2137,1929,1745153636433505269
8330594,2105,1866,2141,1909,1745153636433505269
8331594,2069,1860,2133,1918,1745153636433505269
8332594,2035,1862,2114,1944,1745153636433505269
8333595,2010,1882,2088,1971,1745153636433505269
8334595,1997,1910,2056,2004,1745153636433505269
8335596,1996,1942,2021,2070,1745153636433505269
8336595,2014,1970,1989,2150,1745153636433505269
8337595,2040,1985,1974,2202,1745153636433505269
8338597,2077,2014,1976,2254,1745153636433505269
8339596,2100,2036,1998,2300,1745153636433505269
8340595,2108,2058,2027,2347,1745153636433505269
8341595,2100,2072,2051,2441,1745153636433505269
8342595,2122,2122,2064,2379,1745153636433505269
8343595,2022,2079,2052,2365,1745153636433505269
8344595,1987,2090,2035,2313,1745153636433505269
8345596,1939,2104,2016,2250,1745153636433505269
8346596,1882,2113,2011,2177,1745153636433505269
8347596,1822,2116,2026,2117,1745153636433505269
8348596,1771,2111,2064,2073,1745153636433505269
8349596,1732,2094,2112,2042,1745153636433505269
8350597,1718,2076,2168,2022,1745153636433505269
8351596,1706,2059,2225,2003,1745153636433505269
8352596,1716,2048,2272,1987,1745153636433505269
8353596,1742,2040,2300,1979,1745153636433505269
8354596,1776,2038,2306,1982,1745153636433505269
8355596,1820,2040,2283,2004,1745153636433505269
8356596,1878,2032,2225,2030,1745153636433505269
8357597,1949,2020,2151,2037,1745153636433505269
8358597,2005,2018,2097,2015,1745153636433505269
8359597,2056,2016,2052,1969,1745153636489357727
8360597,2098,2036,2021,1909,1745153636489357727
8361597,2142,2043,2013,1858,1745153636489357727
8362597,2115,2065,2029,1841,1745153636489357727
8363597,2102,2077,2058,1852,1745153636489357727
8364597,2074,2085,2088,1880,1745153636489357727
8365597,2034,2099,2123,1914,1745153636489357727
8366597,1986,2120,2162,1954,1745153636489357727
8367597,1927,2150,2203,1981,1745153636489357727
8368597,1877,2182,2223,1999,1745153636489357727
8369598,1846,2201,2236,2013,1745153636489357727
8370598,1842,2205,2233,2027,1745153636489357727
8371598,1868,2200,2213,2044,1745153636489357727
8372598,1916,2188,2192,2036,1745153636489357727
8373598,1972,2176,2157,2008,1745153636489357727
8374598,2035,2165,2123,1960,1745153636489357727
8375598,2103,2155,2082,1910,1745153636489357727
8376598,2168,2133,2042,1871,1745153636489357727
8377598,2229,2107,2009,1836,1745153636489357727
8378598,2276,2077,1980,1832,1745153636489357727
8379598,2296,2049,1974,1872,1745153636489357727
8380598,2290,2026,1994,1955,1745153636489357727
8381599,2259,2005,2030,2051,1745153636489357727
8382599,2217,1985,2083,2130,1745153636489357727
8383599,2171,1963,2130,2184,1745153636489357727
8384599,2132,1956,2173,2214,1745153636489357727
8385599,2102,1946,2211,2219,1745153636489357727
8386599,2073,1933,2246,2201,1745153636489357727
8387599,2048,1920,2270,2168,1745153636489357727
8388599,2022,1913,2291,2113,1745153636489357727
8389599,2005,1912,2297,2044,1745153636489357727
8390599,2001,1914,2297,1978,1745153636489357727
8391599,1998,1921,2273,1924,1745153636489357727
8392599,2002,1931,2244,1897,1745153636489357727
8393600,2008,1942,2205,1879,1745153636489357727
8394600,2004,1957,2169,1877,1745153636489357727
8395600,2008,1971,2120,1889,1745153636489357727
8396600,2014,1989,2088,1957,1745153636489357727
8397600,2026,2034,2042,1953,1745153636489357727
8398600,2016,2000,1948,1977,1745153636489357727
8399600,2030,2023,1922,2002,1745153636489357727
8400600,2035,2043,1922,2016,1745153636489357727
8401600,2037,2066,1949,2022,1745153636489357727
8402600,2071,2082,1987,2019,1745153636489357727
8403600,2042,2094,2042,2018,1745153636489357727
8404600,2034,2107,2090,2014,1745153636489357727
8405601,2025,2126,2128,2013,1745153636489357727
8406601,1995,2149,2158,2013,1745153636489357727
8407601,1960,2180,2169,2020,1745153636489357727
8408601,1923,2219,2164,2024,1745153636489357727
8409601,1894,2262,2147,2042,1745153636489357727
8410601,1881,2316,2116,2072,1745153636489357727
8411601,1881,2369,2078,2107,1745153636489357727
8412601,1893,2428,2026,2132,1745153636489357727
8413601,1917,2492,1966,2146,1745153636489357727
8414601,1946,2550,1906,2146,1745153636489357727
8415601,1987,2588,1856,2134,1745153636489357727
8416601,2041,2616,1819,2114,1745153636489357727
8417602,2107,2619,1811,2080,1745153636555926129
8418602,2170,2594,1824,2043,1745153636555926129
8419602,2222,2537,1854,2014,1745153636555926129
8420602,2264,2425,1898,1997,1745153636555926129
8421602,2291,2280,1945,1996,1745153636555926129
8422602,2304,2139,1992,2009,1745153636555926129
8423602,2297,2025,2037,2042,1745153636555926129
8424602,2274,1945,2088,2088,1745153636555926129
8425602,2228,1891,2150,2149,1745153636555926129
8426602,2163,1852,2209,2210,1745153636555926129
8427602,2092,1833,2249,2253,1745153636555926129
8428602,2014,1812,2269,2279,1745153636555926129
8429603,1949,1804,2261,2266,1745153636555926129
8430603,1898,1797,2239,2234,1745153636555926129
8431603,1872,1768,2214,2194,1745153636555926129
8432603,1867,1741,2194,2158,1745153636555926129
8433603,1880,1716,2172,2136,1745153636555926129
8434603,1910,1700,2149,2129,1745153636555926129
8435603,1954,1692,2120,2132,1745153636555926129
8436603,2017,1697,2091,2135,1745153636555926129
8437603,2087,1705,2060,2138,1745153636555926129
8438603,2152,1717,2037,2138,1745153636555926129
8439603,2201,1731,2023,2131,1745153636555926129
8440603,2228,1748,2013,2129,1745153636555926129
8441604,2228,1762,2003,2140,1745153636555926129
8442604,2210,1769,1989,2155,1745153636555926129
8443604,2177,1771,1975,2167,1745153636555926129
8444604,2131,1756,1968,2178,1745153636555926129
8445604,2080,1726,1965,2185,1745153636555926129
8446604,2023,1698,1969,2192,1745153636555926129
8447604,1969,1688,1977,2194,1745153636555926129
8448604,1920,1694,1986,2187,1745153636555926129
8449606,1891,1706,1982,2170,1745153636555926129
8450604,1873,1712,1976,2147,1745153636555926129
8451604,1872,1702,1961,2121,1745153636555926129
8452604,1880,1673,1939,2138,1745153636555926129
8453605,1905,1634,1897,2066,1745153636555926129
8454605,1928,1619,1884,2045,1745153636555926129
8455605,1968,1616,1857,2026,1745153636555926129
8456605,2015,1627,1834,2014,1745153636555926129
8457605,2064,1648,1816,2005,1745153636555926129
8458605,2107,1670,1804,2001,1745153636555926129
8459605,2138,1685,1809,2002,1745153636555926129
8460605,2148,1706,1824,2006,1745153636555926129
8461605,2145,1725,1852,2017,1745153636555926129
8462605,2137,1747,1882,2022,1745153636555926129
8463605,2125,1757,1918,2019,1745153636555926129
8464605,2115,1750,1955,2010,1745153636555926129
8465606,2098,1743,1988,1994,1745153636555926129
8466606,2074,1740,2013,1968,1745153636555926129
8467606,2037,1751,2030,1946,1745153636555926129
8468606,2006,1761,2035,1922,1745153636555926129
8469606,1980,1771,2022,1896,1745153636555926129
8470606,1964,1782,2000,1892,1745153636555926129
8471606,1960,1797,1979,1889,1745153636555926129
8472606,1962,1813,1955,1894,1745153636555926129
8473606,1976,1822,1939,1906,1745153636555926129
8474606,1997,1820,1925,1924,1745153636555926129
8475606,2040,1808,1912,1947,1745153636630431334
8476606,2104,1799,1906,1972,1745153636630431334
8477607,2176,1796,1902,1996,1745153636630431334
8478607,2243,1793,1905,2013,1745153636630431334
8479607,2298,1798,1912,2016,1745153636630431334
8480607,2324,1827,1921,2003,1745153636630431334
8481607,2323,1861,1933,1978,1745153636630431334
8482607,2301,1908,1948,1955,1745153636630431334
8483607,2264,1961,1963,1933,1745153636630431334
8484607,2209,2013,1980,1913,1745153636630431334
8485607,2146,2073,1993,1901,1745153636630431334
8486607,2068,2133,2006,1908,1745153636630431334
8487607,1988,2206,2013,1932,1745153636630431334
8488607,1920,2308,2013,1967,1745153636630431334
8489608,1867,2437,2009,2005,1745153636630431334
8490608,1840,2562,2008,2043,1745153636630431334
8491608,1834,2688,2017,2081,1745153636630431334
8492608,1846,2781,2033,2109,1745153636630431334
8493608,1875,2850,2051,2121,1745153636630431334
8494608,1908,2896,2061,2121,1745153636630431334
8495608,1950,2924,2060,2114,1745153636630431334
8496608,2000,2930,2036,2094,1745153636630431334
8497608,2056,2920,2003,2052,1745153636630431334
8498608,2098,2882,1969,2007,1745153636630431334
8499608,2124,2826,1930,1972,1745153636630431334
8500608,2132,2750,1891,1944,1745153636630431334
8501609,2117,2661,1860,1926,1745153636630431334
8502609,2093,2570,1841,1916,1745153636630431334
8503609,2062,2495,1828,1912,1745153636630431334
8504609,2023,2349,1814,1915,1745153636630431334
8505609,1987,2251,1809,1926,1745153636630431334
8506609,1939,2164,1785,1945,1745153636630431334
8507609,1890,2097,1755,1974,1745153636630431334
8508609,1850,2053,1716,2014,1745153636630431334
8509609,1833,2025,1683,2050,1745153636630431334
8510609,1835,2008,1653,2068,1745153636630431334
8511609,1854,1998,1636,2066,1745153636630431334
8512609,1893,1995,1621,2048,1745153636630431334
8513610,1949,1990,1604,2033,1745153636630431334
8514610,1998,2001,1587,2040,1745153636630431334
8515610,2057,2010,1566,2068,1745153636630431334
8516610,2116,2027,1547,2106,1745153636630431334
8517610,2172,2053,1534,2145,1745153636630431334
8518610,2214,2078,1514,2174,1745153636630431334
8519610,2246,2101,1509,2181,1745153636630431334
8520610,2258,2117,1513,2169,1745153636630431334
8521610,2249,2126,1529,2149,1745153636630431334
8522610,2213,2179,1547,2113,1745153636630431334
8523610,2229,2154,1579,2082,1745153636630431334
8524610,2126,2072,1620,2085,1745153636630431334
8525611,2094,2053,1681,2100,1745153636630431334
8526611,2044,2060,1732,2126,1745153636630431334
8527611,1982,2061,1771,2180,1745153636630431334
8528611,1936,2077,1806,2240,1745153636630431334
8529611,1907,2083,1821,2274,1745153636630431334
8530611,1885,2072,1822,2288,1745153636630431334
8531611,1878,2061,1815,2275,1745153636630431334
8532611,1885,2056,1804,2249,1745153636630431334
8533611,1899,2056,1794,2208,1745153636661159491
8534611,1923,2056,1792,2163,1745153636661159491
8535611,1954,2051,1789,2125,1745153636661159491
8536611,2001,2048,1794,2099,1745153636661159491
8537612,2060,2043,1806,2091,1745153636661159491
8538612,2107,2039,1828,2100,1745153636661159491
8539612,2147,2037,1858,2105,1745153636661159491
8540612,2168,2035,1886,2113,1745153636661159491
8541612,2168,2033,1917,2113,1745153636661159491
8542612,2152,2028,1949,2112,1745153636661159491
8543612,2123,2021,1985,2114,1745153636661159491
8544612,2086,2017,2019,2129,1745153636661159491
8545612,2042,2011,2056,2148,1745153636661159491
8546612,1988,2009,2091,2174,1745153636661159491
8547612,1932,2011,2121,2200,1745153636661159491
8548612,1882,2021,2140,2212,1745153636661159491
8549613,1845,2034,2147,2209,1745153636661159491
8550613,1825,2052,2140,2197,1745153636661159491
8551613,1819,2067,2117,2180,1745153636661159491
8552613,1829,2082,2086,2162,1745153636661159491
8553613,1853,2098,2044,2149,1745153636661159491
8554613,1888,2107,2002,2138,1745153636661159491
8555613,1933,2109,1960,2134,1745153636661159491
8556613,1985,2105,1924,2134,1745153636661159491
8557613,2043,2098,1906,2137,1745153636661159491
8558613,2095,2090,1895,2144,1745153636661159491
8559613,2131,2072,1901,2154,1745153636661159491
8560613,2153,2044,1922,2157,1745153636661159491
8561614,2160,2013,1948,2159,1745153636661159491
8562614,2156,1980,1984,2153,1745153636661159491
8563614,2141,1952,2022,2147,1745153636661159491
8564614,2117,1928,2069,2140,1745153636661159491
8565614,2083,1913,2120,2131,1745153636661159491
8566614,2040,1902,2163,2121,1745153636661159491
8567614,1995,1900,2206,2104,1745153636661159491
8568614,1952,1899,2234,2092,1745153636661159491
8569614,1924,1896,2250,2076,1745153636661159491
8570614,1915,1894,2251,2064,1745153636661159491
8571614,1916,1893,2241,2053,1745153636661159491
8572614,1936,1896,2228,2044,1745153636661159491
8573615,1962,1900,2216,2048,1745153636661159491
8574615,2003,1905,2214,2048,1745153636661159491
8575615,2052,1906,2216,2053,1745153636661159491
8576615,2105,1905,2214,2053,1745153636661159491
8577615,2156,1890,2201,2050,1745153636661159491
8578615,2196,1861,2166,2050,1745153636661159491
8579615,2221,1842,2115,2039,1745153636661159491
8580615,2230,1827,2058,2022,1745153636661159491
8581615,2222,1812,2003,2002,1745153636661159491
8582615,2198,1798,1957,1979,1745153636661159491
8583615,2162,1788,1926,1957,1745153636661159491
8584615,2115,1786,1907,1939,1745153636661159491
8585616,2060,1786,1899,1914,1745153636661159491
8586616,1998,1785,1902,1898,1745153636661159491
8587616,1937,1784,1908,1894,1745153636661159491
8588616,1877,1786,1917,1910,1745153636661159491
8589616,1835,1793,1932,1939,1745153636661159491
8590616,1811,1808,1948,1979,1745153636661159491
8591616,1806,1831,1966,2021,1745153636724925002
8592616,1825,1860,1991,2058,1745153636724925002
8593616,1860,1893,2049,2090,1745153636724925002
8594616,1904,1922,2016,2076,1745153636724925002
8595616,1949,1971,2020,2066,1745153636724925002
8596616,2001,2004,1998,2043,1745153636724925002
8597617,2051,2033,1964,2018,1745153636724925002
8598617,2081,2057,1924,1996,1745153636724925002
8599617,2101,2072,1885,1986,1745153636724925002
8600617,2097,2076,1861,1986,1745153636724925002
8601617,2084,2082,1848,1986,1745153636724925002
8602617,2056,2085,1853,1986,1745153636724925002
8603617,2013,2084,1877,1978,1745153636724925002
8604617,1964,2086,1923,1978,1745153636724925002
8605617,1904,2097,1989,1979,1745153636724925002
8606617,1842,2116,2060,1986,1745153636724925002
8607617,1796,2135,2121,2004,1745153636724925002
8608617,1762,2154,2168,2029,1745153636724925002
8609618,1751,2165,2194,2060,1745153636724925002
8610618,1761,2177,2204,2086,1745153636724925002
8611618,1790,2190,2204,2105,1745153636724925002
8612618,1830,2204,2193,2117,1745153636724925002
8613618,1873,2226,2187,2127,1745153636724925002
8614618,1914,2246,2180,2132,1745153636724925002
8615618,1962,2260,2171,2139,1745153636724925002
8616618,2008,2271,2155,2137,1745153636724925002
8617618,2052,2281,2133,2130,1745153636724925002
8618618,2076,2290,2107,2117,1745153636724925002
8619618,2082,2297,2084,2099,1745153636724925002
8620618,2067,2302,2066,2072,1745153636724925002
8621619,2035,2303,2061,2044,1745153636724925002
8622619,1992,2296,2077,2017,1745153636724925002
8623619,1946,2291,2102,1998,1745153636724925002
8624619,1904,2286,2132,1987,1745153636724925002
8625619,1860,2278,2170,1986,1745153636724925002
8626620,1818,2274,2214,1982,1745153636724925002
8627619,1781,2264,2309,1979,1745153636724925002
8628619,1755,2242,2283,1966,1745153636724925002
8629619,1766,2248,2304,1950,1745153636724925002
8630619,1795,2241,2319,1948,1745153636724925002
8631619,1853,2242,2330,1946,1745153636724925002
8632619,1913,2234,2337,1948,1745153636724925002
8633620,1973,2235,2330,1954,1745153636724925002
8634620,2027,2233,2313,1966,1745153636724925002
8635620,2082,2219,2292,1979,1745153636724925002
8636620,2129,2216,2267,1995,1745153636724925002
8637620,2167,2214,2246,2013,1745153636724925002
8638620,2191,2219,2227,2035,1745153636724925002
8639620,2198,2222,2215,2043,1745153636724925002
8640620,2188,2224,2205,2034,1745153636724925002
8641620,2159,2221,2201,2017,1745153636724925002
8642620,2126,2216,2196,1986,1745153636724925002
8643620,2083,2208,2201,1948,1745153636724925002
8644620,2037,2200,2210,1909,1745153636724925002
8645621,1993,2192,2229,1875,1745153636724925002
8646621,1948,2184,2255,1865,1745153636724925002
8647621,1906,2176,2286,1874,1745153636724925002
8648621,1871,2163,2325,1904,1745153636724925002
8649621,1851,2152,2366,1946,1745153636784091962
8650621,1847,2140,2407,1986,1745153636784091962
8651621,1854,2130,2446,2021,1745153636784091962
8652621,1870,2124,2491,2048,1745153636784091962
8653621,1893,2118,2528,2051,1745153636784091962
8654621,1926,2112,2545,2037,1745153636784091962
8655621,1965,2116,2542,2019,1745153636784091962
8656621,2022,2116,2512,1997,1745153636784091962
8657622,2094,2120,2466,1987,1745153636784091962
8658622,2164,2123,2414,1984,1745153636784091962
8659622,2222,2121,2362,1987,1745153636784091962
8660622,2261,2114,2316,1995,1745153636784091962
8661622,2272,2101,2282,2003,1745153636784091962
8662622,2262,2085,2261,2010,1745153636784091962
8663622,2233,2067,2255,2010,1745153636784091962
8664622,2186,2048,2257,2004,1745153636784091962
8665622,2127,2030,2271,1995,1745153636784091962
8666622,2058,2017,2284,1981,1745153636784091962
8667622,1992,2006,2299,1973,1745153636784091962
8668622,1930,1998,2309,1971,1745153636784091962
8669623,1888,1996,2321,1977,1745153636784091962
8670623,1861,1998,2326,1989,1745153636784091962
8671623,1853,2004,2322,2006,1745153636784091962
8672623,1858,2019,2305,2026,1745153636784091962
8673623,1868,2037,2269,2048,1745153636784091962
8674623,1886,2056,2226,2064,1745153636784091962
8675623,1912,2070,2181,2076,1745153636784091962
8676623,1949,2085,2130,2088,1745153636784091962
8677623,1992,2097,2078,2098,1745153636784091962
8678623,2026,2104,2026,2104,1745153636784091962
8679623,2054,2109,1981,2117,1745153636784091962
8680623,2074,2112,1950,2128,1745153636784091962
8681624,2073,2109,1944,2155,1745153636784091962
8682624,2080,2101,1957,2159,1745153636784091962
8683625,2085,2089,1988,2159,1745153636784091962
8684624,2084,2074,2042,2153,1745153636784091962
8685624,2075,2056,2104,2133,1745153636784091962
8686624,2061,2034,2155,2108,1745153636784091962
8687624,2049,2024,2224,2083,1745153636784091962
8688624,2076,2017,2264,2040,1745153636784091962
8689625,2016,2017,2293,2032,1745153636784091962
8690624,2012,2021,2297,2025,1745153636784091962
8691625,2016,2030,2275,2027,1745153636784091962
8692626,2030,2045,2240,2035,1745153636784091962
8693625,2056,2063,2195,2057,1745153636784091962
8694625,2084,2077,2148,2074,1745153636784091962
8695625,2115,2092,2105,2085,1745153636784091962
8696625,2139,2098,2064,2104,1745153636784091962
8697625,2162,2115,2033,2110,1745153636784091962
8698625,2173,2120,2014,2122,1745153636784091962
8699625,2182,2121,2005,2129,1745153636784091962
8700625,2184,2114,2004,2133,1745153636784091962
8701625,2181,2104,2012,2140,1745153636784091962
8702625,2176,2090,2022,2149,1745153636784091962
8703625,2160,2074,2035,2160,1745153636784091962
8704625,2134,2062,2056,2168,1745153636784091962
8705626,2100,2054,2076,2171,1745153636784091962
8706626,2057,2043,2102,2179,1745153636784091962
8707626,2011,2034,2121,2187,1745153636839679423
8708626,1979,2028,2141,2201,1745153636839679423
8709626,1958,2019,2148,2197,1745153636839679423
8710626,1957,2013,2148,2174,1745153636839679423
8711626,1967,2010,2143,2130,1745153636839679423
