timestamp,emg0,emg1,emg2,emg3,pkt_time_ns
7833770,1995,2140,2015,2144,1745173816047654288
7834767,1985,2160,2003,2147,1745173816047654288
7835767,1984,2172,1995,2145,1745173816047654288
7836767,1980,2182,1995,2146,1745173816047654288
7837767,1984,2187,1999,2130,1745173816047654288
7838767,1984,2182,2006,2117,1745173816047654288
7839767,1989,2170,2017,2098,1745173816047654288
7840768,2000,2153,2028,2083,1745173816047654288
7841768,2009,2137,2040,2067,1745173816047654288
7842768,2020,2120,2052,2054,1745173816047654288
7843768,2029,2102,2060,2038,1745173816047654288
7844768,2034,2088,2065,2026,1745173816047654288
7845768,2035,2074,2067,2024,1745173816047654288
7846768,2034,2068,2064,2039,1745173816047654288
7847768,2029,2062,2058,2060,1745173816047654288
7848768,2024,2054,2052,2088,1745173816047654288
7849768,2019,2042,2042,2113,1745173816047654288
7850768,2017,2041,2031,2136,1745173816047654288
7851768,2019,2040,2017,2152,1745173816047654288
7852769,2018,2044,2005,2160,1745173816047654288
7853769,2020,2050,1989,2156,1745173816047654288
7854769,2018,2055,1982,2150,1745173816047654288
7855769,2017,2059,1977,2141,1745173816047654288
7856769,2019,2061,1978,2126,1745173816047654288
7857769,2021,2065,1982,2107,1745173816047654288
7858769,2019,2067,1988,2092,1745173816047654288
7859769,2020,2068,1998,2086,1745173816047654288
7860769,2021,2068,2010,2088,1745173816047654288
7861769,2025,2060,2025,2093,1745173816047654288
7862769,2029,2050,2041,2094,1745173816047654288
7863769,2036,2037,2054,2094,1745173816047654288
7864770,2044,2022,2072,2092,1745173816047654288
7865770,2054,2008,2083,2091,1745173816047654288
7866770,2061,1990,2090,2105,1745173816047654288
7867770,2070,1980,2100,2114,1745173816047654288
7868770,2075,1972,2102,2126,1745173816047654288
7869770,2078,1971,2100,2142,1745173816047654288
7870770,2081,1976,2095,2147,1745173816047654288
7871770,2080,1983,2086,2150,1745173816047654288
7872770,2077,1994,2081,2140,1745173816047654288
7873770,2073,2010,2068,2122,1745173816047654288
7874770,2066,2027,2059,2096,1745173816047654288
7875770,2057,2042,2048,2060,1745173816047654288
7876771,2048,2058,2034,2033,1745173816047654288
7877771,2043,2066,2021,2002,1745173816047654288
7878771,2040,2071,2012,1990,1745173816047654288
7879771,2035,2074,2008,1987,1745173816047654288
7880771,2033,2072,2009,1993,1745173816047654288
7881771,2032,2064,2012,2001,1745173816047654288
7882771,2035,2050,2017,2014,1745173816047654288
7883771,2040,2030,2023,2027,1745173816047654288
7884771,2050,2012,2033,2038,1745173816047654288
7885771,2060,1994,2041,2056,1745173816047654288
7886771,2068,1978,2054,2064,1745173816047654288
7887771,2076,1967,2065,2065,1745173816047654288
7888772,2080,1958,2072,2062,1745173816047654288
7889772,2082,1962,2076,2061,1745173816047654288
7890772,2080,1978,2082,2057,1745173816047654288
7891772,2069,2005,2084,2062,1745173816104691684
7892772,2062,2035,2080,2064,1745173816104691684
7893772,2053,2065,2075,2068,1745173816104691684
7894772,2050,2085,2068,2068,1745173816104691684
7895772,2049,2101,2059,2069,1745173816104691684
7896772,2048,2109,2042,2078,1745173816104691684
7897772,2049,2114,2029,2068,1745173816104691684
7898774,2054,2118,2018,2078,1745173816104691684
7899772,2033,2113,2008,2068,1745173816104691684
7900773,2027,2122,2013,2064,1745173816104691684
7901773,2037,2138,2024,2064,1745173816104691684
7902773,2043,2165,2064,2088,1745173816104691684
7903773,2065,2224,2136,2142,1745173816104691684
7904773,2112,2190,2067,2057,1745173816104691684
7905773,2003,2076,2022,2033,1745173816104691684
7906773,1988,2061,2030,2072,1745173816104691684
7907773,1996,2054,2040,2068,1745173816104691684
7908773,1988,2033,2034,2072,1745173816104691684
7909773,1986,2027,2038,2086,1745173816104691684
7910773,1996,2024,2039,2098,1745173816104691684
7911773,2004,2028,2042,2102,1745173816104691684
7912774,2007,2027,2044,2101,1745173816104691684
7913774,2016,2032,2048,2102,1745173816104691684
7914774,2020,2038,2050,2092,1745173816104691684
7915774,2025,2042,2051,2079,1745173816104691684
7916774,2031,2049,2051,2074,1745173816104691684
7917774,2032,2067,2053,2059,1745173816104691684
7918774,2035,2068,2050,2056,1745173816104691684
7919774,2034,2077,2044,2052,1745173816104691684
7920774,2029,2077,2038,2045,1745173816104691684
7921774,2027,2078,2032,2036,1745173816104691684
7922774,2023,2075,2032,2032,1745173816104691684
7923774,2018,2073,2029,2031,1745173816104691684
7924775,2016,2072,2029,2029,1745173816104691684
7925775,2013,2072,2026,2036,1745173816104691684
7926775,2012,2071,2026,2037,1745173816104691684
7927775,2014,2078,2021,2031,1745173816104691684
7928775,2017,2082,2020,2030,1745173816104691684
7929775,2016,2086,2018,2034,1745173816104691684
7930775,2021,2100,2017,2053,1745173816104691684
7931775,2035,2125,2026,2081,1745173816104691684
7932775,2033,2132,2019,2098,1745173816104691684
7933775,2028,2138,2017,2114,1745173816104691684
7934775,2033,2142,2020,2124,1745173816104691684
7935775,2038,2141,2022,2121,1745173816104691684
7936776,2050,2139,2026,2109,1745173816104691684
7937776,2066,2137,2036,2083,1745173816104691684
7938776,2067,2113,2041,2051,1745173816104691684
7939776,2076,2096,2051,2011,1745173816104691684
7940776,2084,2076,2059,1979,1745173816104691684
7941776,2090,2067,2069,1950,1745173816104691684
7942776,2080,2061,2068,1942,1745173816104691684
7943776,2066,2064,2062,1942,1745173816104691684
7944776,2051,2080,2058,1955,1745173816104691684
7945776,2028,2094,2057,1982,1745173816104691684
7946776,2014,2114,2051,2006,1745173816104691684
7947776,2006,2135,2044,2028,1745173816104691684
7948777,2001,2150,2039,2045,1745173816104691684
7949777,2000,2170,2035,2059,1745173816160828410
7950777,2001,2183,2034,2064,1745173816160828410
7951777,2004,2195,2030,2058,1745173816160828410
7952777,2006,2205,2026,2043,1745173816160828410
7953777,2012,2206,2024,2033,1745173816160828410
7954777,2020,2205,2019,2024,1745173816160828410
7955777,2027,2202,2020,2019,1745173816160828410
7956777,2034,2189,2023,2031,1745173816160828410
7957778,2043,2187,2030,2026,1745173816160828410
7958777,2054,2178,1997,1980,1745173816160828410
7959778,1997,2114,2012,2004,1745173816160828410
7960778,2018,2122,2049,2050,1745173816160828410
7961778,2065,2154,2082,2128,1745173816160828410
7962778,2150,2216,2152,2024,1745173816160828410
7963778,2038,2086,2050,1992,1745173816160828410
7964778,2026,2070,2056,2006,1745173816160828410
7965778,2036,2065,2065,2025,1745173816160828410
7966778,2052,2058,2061,2048,1745173816160828410
7967778,2058,2066,2057,2065,1745173816160828410
7968778,2064,2061,2049,2081,1745173816160828410
7969778,2068,2069,2042,2093,1745173816160828410
7970778,2067,2082,2036,2162,1745173816160828410
7971778,2075,2101,2029,2111,1745173816160828410
7972779,2056,2108,2014,2112,1745173816160828410
7973779,2040,2123,2005,2113,1745173816160828410
7974779,2031,2144,1996,2108,1745173816160828410
7975779,2019,2155,1989,2092,1745173816160828410
7976779,2014,2162,1981,2070,1745173816160828410
7977779,2008,2168,1982,2049,1745173816160828410
7978779,2008,2157,1987,2034,1745173816160828410
7979779,2011,2152,1996,2026,1745173816160828410
7980779,2017,2140,2009,2022,1745173816160828410
7981779,2021,2124,2017,2030,1745173816160828410
7982779,2032,2105,2024,2037,1745173816160828410
7983779,2040,2085,2035,2050,1745173816160828410
7984780,2050,2064,2044,2064,1745173816160828410
7985780,2059,2048,2048,2065,1745173816160828410
7986780,2065,2032,2056,2068,1745173816160828410
7987780,2070,2027,2058,2065,1745173816160828410
7988780,2073,2016,2053,2055,1745173816160828410
7989780,2071,2019,2052,2041,1745173816160828410
7990780,2067,2022,2048,2036,1745173816160828410
7991780,2062,2037,2040,2032,1745173816160828410
7992780,2058,2057,2037,2028,1745173816160828410
7993780,2050,2073,2034,2033,1745173816160828410
7994780,2046,2090,2030,2037,1745173816160828410
7995780,2043,2099,2028,2053,1745173816160828410
7996781,2048,2104,2026,2065,1745173816160828410
7997781,2048,2104,2024,2070,1745173816160828410
7998781,2045,2096,2031,2077,1745173816160828410
7999781,2042,2087,2037,2080,1745173816160828410
8000781,2043,2078,2048,2082,1745173816160828410
8001781,2037,2058,2057,2074,1745173816160828410
8002781,2043,2034,2064,2063,1745173816160828410
8003781,2042,2012,2067,2049,1745173816160828410
8004781,2043,1993,2069,2030,1745173816160828410
8005781,2050,1974,2069,2016,1745173816160828410
8006781,2053,1958,2068,2013,1745173816160828410
8007781,2059,1948,2070,2021,1745173816221482179
8008782,2062,1944,2071,2030,1745173816221482179
8009782,2062,1947,2076,2052,1745173816221482179
8010782,2060,1957,2076,2073,1745173816221482179
8011782,2060,1969,2076,2089,1745173816221482179
8012782,2052,1985,2076,2102,1745173816221482179
8013782,2044,1998,2069,2113,1745173816221482179
8014782,2040,2013,2061,2112,1745173816221482179
8015783,2040,2037,2059,2112,1745173816221482179
8016782,2028,2033,2049,2097,1745173816221482179
8017782,2024,2038,2058,2092,1745173816221482179
8018782,2086,2141,2136,2152,1745173816221482179
8019782,2088,2032,2032,2024,1745173816221482179
8020783,2034,2006,2036,2015,1745173816221482179
8021783,1984,1984,2043,2009,1745173816221482179
8022783,1996,1973,2059,2012,1745173816221482179
8023783,2013,1958,2070,2010,1745173816221482179
8024783,2032,1944,2075,2007,1745173816221482179
8025783,2050,1930,2085,1995,1745173816221482179
8026783,2062,1917,2097,1994,1745173816221482179
8027783,2080,1913,2102,1985,1745173816221482179
8028783,2090,1904,2105,1985,1745173816221482179
8029783,2097,1906,2106,1990,1745173816221482179
8030783,2101,1912,2099,1991,1745173816221482179
8031783,2102,1928,2085,1995,1745173816221482179
8032784,2091,1949,2069,2000,1745173816221482179
8033784,2080,1987,2052,2014,1745173816221482179
8034784,2077,2014,2027,2005,1745173816221482179
8035784,2057,2034,2000,1993,1745173816221482179
8036784,2048,2050,1987,1988,1745173816221482179
8037784,2050,2058,1983,1984,1745173816221482179
8038784,2050,2050,1985,1986,1745173816221482179
8039784,2053,2030,1989,1988,1745173816221482179
8040784,2064,2004,1996,1997,1745173816221482179
8041784,2073,1972,2012,2005,1745173816221482179
8042784,2082,1940,2033,2026,1745173816221482179
8043784,2096,1916,2058,2039,1745173816221482179
8044785,2105,1904,2080,2051,1745173816221482179
8045785,2112,1901,2096,2061,1745173816221482179
8046785,2116,1906,2105,2065,1745173816221482179
8047785,2114,1920,2104,2064,1745173816221482179
8048785,2106,1935,2094,2058,1745173816221482179
8049785,2098,1960,2080,2037,1745173816221482179
8050785,2078,1995,2058,2025,1745173816221482179
8051785,2056,2028,2028,2013,1745173816221482179
8052785,2033,2065,2008,2011,1745173816221482179
8053785,2018,2093,1988,2017,1745173816221482179
8054785,2010,2112,1974,2024,1745173816221482179
8055785,2009,2124,1973,2035,1745173816221482179
8056786,2010,2130,1975,2057,1745173816221482179
8057786,2017,2131,1980,2075,1745173816221482179
8058786,2019,2130,1990,2092,1745173816221482179
8059786,2026,2122,2001,2109,1745173816221482179
8060786,2032,2108,2010,2108,1745173816221482179
8061786,2037,2094,2024,2106,1745173816221482179
8062786,2044,2076,2037,2098,1745173816221482179
8063786,2056,2056,2050,2090,1745173816221482179
8064786,2063,2036,2062,2076,1745173816221482179
8065786,2070,2025,2073,2068,1745173816283381562
8066786,2080,2013,2081,2063,1745173816283381562
8067786,2085,2008,2084,2059,1745173816283381562
8068787,2089,2010,2089,2061,1745173816283381562
8069787,2091,2017,2084,2064,1745173816283381562
8070787,2093,2040,2088,2072,1745173816283381562
8071787,2085,2049,2071,2070,1745173816283381562
8072787,2081,2067,2061,2069,1745173816283381562
8073787,2073,2085,2061,2086,1745173816283381562
8074787,2126,2112,2029,2032,1745173816283381562
8075787,2014,2060,2000,2029,1745173816283381562
8076788,2027,2084,2029,2052,1745173816283381562
8077787,2048,2106,2038,2082,1745173816283381562
8078787,2092,2140,2062,2113,1745173816283381562
8079787,2184,2199,2137,2115,1745173816283381562
8080788,2077,2069,2026,2036,1745173816283381562
8081788,2052,2049,2037,2002,1745173816283381562
8082788,2038,2029,2039,2006,1745173816283381562
8083788,2042,2021,2050,2020,1745173816283381562
8084788,2042,2014,2060,2035,1745173816283381562
8085788,2043,2011,2068,2050,1745173816283381562
8086788,2049,2011,2073,2060,1745173816283381562
8087788,2048,2018,2078,2067,1745173816283381562
8088788,2048,2017,2077,2066,1745173816283381562
8089788,2048,2026,2081,2065,1745173816283381562
8090788,2045,2034,2080,2068,1745173816283381562
8091788,2048,2040,2078,2068,1745173816283381562
8092789,2051,2043,2074,2068,1745173816283381562
8093789,2051,2051,2072,2066,1745173816283381562
8094789,2053,2054,2078,2067,1745173816283381562
8095789,2057,2058,2082,2063,1745173816283381562
8096789,2059,2060,2088,2067,1745173816283381562
8097789,2061,2060,2089,2067,1745173816283381562
8098789,2067,2054,2085,2065,1745173816283381562
8099789,2068,2056,2080,2056,1745173816283381562
8100789,2064,2056,2075,2044,1745173816283381562
8101789,2060,2055,2066,2028,1745173816283381562
8102789,2052,2054,2064,2017,1745173816283381562
8103789,2040,2053,2062,2019,1745173816283381562
8104790,2032,2048,2064,2024,1745173816283381562
8105790,2028,2049,2064,2026,1745173816283381562
8106790,2025,2049,2068,2036,1745173816283381562
8107790,2026,2050,2072,2029,1745173816283381562
8108790,2021,2048,2069,2024,1745173816283381562
8109790,2022,2052,2069,2018,1745173816283381562
8110790,2021,2057,2070,2017,1745173816283381562
8111790,2021,2069,2067,2021,1745173816283381562
8112790,2020,2089,2062,2030,1745173816283381562
8113790,2019,2108,2060,2043,1745173816283381562
8114790,2018,2125,2058,2061,1745173816283381562
8115790,2019,2137,2058,2076,1745173816283381562
8116791,2024,2141,2053,2086,1745173816283381562
8117791,2029,2134,2057,2099,1745173816283381562
8118791,2035,2110,2062,2104,1745173816283381562
8119791,2043,2080,2066,2106,1745173816283381562
8120791,2056,2049,2067,2106,1745173816283381562
8121791,2065,2021,2076,2106,1745173816283381562
8122791,2070,1997,2080,2107,1745173816283381562
8123791,2076,1976,2083,2110,1745173816341866236
8124791,2084,1968,2090,2109,1745173816341866236
8125791,2085,1961,2091,2094,1745173816341866236
8126791,2077,1964,2091,2084,1745173816341866236
8127791,2069,1973,2086,2063,1745173816341866236
8128792,2059,1989,2081,2049,1745173816341866236
8129792,2050,2005,2077,2036,1745173816341866236
8130792,2041,2022,2077,2033,1745173816341866236
8131792,2038,2051,2088,2036,1745173816341866236
8132793,2042,2073,2051,2029,1745173816341866236
8133792,2029,2085,2039,2031,1745173816341866236
8134792,2026,2102,2036,2056,1745173816341866236
8135792,2027,2125,2018,2081,1745173816341866236
8136792,2028,2145,2013,2050,1745173816341866236
8137792,2013,2160,2008,2144,1745173816341866236
8138792,2097,2246,2082,2041,1745173816341866236
8139792,1994,2125,1980,2003,1745173816341866236
8140793,1973,2114,1990,2002,1745173816341866236
8141793,1981,2106,2002,2001,1745173816341866236
8142793,1994,2089,2015,2009,1745173816341866236
8143793,2013,2173,2126,2090,1745173816341866236
8144793,2101,2059,2079,1996,1745173816341866236
8145793,2009,2018,2026,1985,1745173816341866236
8146793,2007,2005,2035,2004,1745173816341866236
8147793,2024,2004,2044,2017,1745173816341866236
8148795,2034,2000,2050,2028,1745173816341866236
8149794,2045,2002,2049,2040,1745173816341866236
8150793,2053,2006,2045,2050,1745173816341866236
8151794,2053,2013,2037,2051,1745173816341866236
8152794,2061,2022,2033,2053,1745173816341866236
8153794,2062,2030,2029,2051,1745173816341866236
8154794,2065,2033,2027,2040,1745173816341866236
8155794,2072,2042,2025,2037,1745173816341866236
8156794,2072,2049,2032,2036,1745173816341866236
8157794,2076,2051,2037,2049,1745173816341866236
8158794,2082,2051,2038,2062,1745173816341866236
8159794,2084,2052,2045,2074,1745173816341866236
8160794,2092,2048,2054,2089,1745173816341866236
8161794,2094,2040,2048,2090,1745173816341866236
8162794,2092,2030,2049,2092,1745173816341866236
8163794,2090,2019,2040,2093,1745173816341866236
8164795,2088,2009,2036,2077,1745173816341866236
8165795,2080,2006,2034,2062,1745173816341866236
8166795,2069,2004,2028,2040,1745173816341866236
8167795,2060,2009,2019,2020,1745173816341866236
8168795,2045,2021,2013,2009,1745173816341866236
8169795,2034,2035,2006,2012,1745173816341866236
8170795,2027,2054,1997,2025,1745173816341866236
8171795,2024,2073,1991,2039,1745173816341866236
8172795,2019,2091,1986,2057,1745173816341866236
8173795,2017,2107,1981,2068,1745173816341866236
8174795,2017,2122,1978,2074,1745173816341866236
8175795,2018,2138,1978,2081,1745173816341866236
8176796,2020,2146,1977,2084,1745173816341866236
8177796,2021,2149,1980,2082,1745173816341866236
8178796,2027,2146,1984,2082,1745173816341866236
8179796,2030,2136,1993,2080,1745173816341866236
8180796,2037,2118,2003,2075,1745173816341866236
8181796,2045,2099,2018,2058,1745173816397744527
8182796,2049,2075,2030,2049,1745173816397744527
8183796,2056,2050,2051,2035,1745173816397744527
8184796,2066,2028,2066,2035,1745173816397744527
8185796,2076,2011,2080,2042,1745173816397744527
8186796,2088,1994,2089,2058,1745173816397744527
8187796,2101,1988,2086,2067,1745173816397744527
8188797,2109,1990,2085,2076,1745173816397744527
8189797,2113,2001,2076,2085,1745173816397744527
8190797,2110,2025,2070,2097,1745173816397744527
8191797,2101,2050,2033,2084,1745173816397744527
8192797,2084,2068,2009,2081,1745173816397744527
8193797,2084,2099,1990,2049,1745173816397744527
8194797,2063,2097,1963,2027,1745173816397744527
8195797,2058,2107,1952,2013,1745173816397744527
8196797,2060,2218,2034,2090,1745173816397744527
8197797,2145,2122,1928,1966,1745173816397744527
8198797,2034,2072,1912,1954,1745173816397744527
8199797,2040,2064,1920,1949,1745173816397744527
8200798,2053,2052,1929,1948,1745173816397744527
8201798,2065,2106,1953,1953,1745173816397744527
8202798,2077,2010,1954,1946,1745173816397744527
8203798,2083,1994,1978,1950,1745173816397744527
8204798,2086,1984,2001,1959,1745173816397744527
8205798,2094,1982,2019,1979,1745173816397744527
8206798,2098,1983,2034,2000,1745173816397744527
8207798,2098,1988,2049,2020,1745173816397744527
8208798,2096,1995,2052,2027,1745173816397744527
8209798,2088,2012,2060,2034,1745173816397744527
8210798,2076,2031,2056,2037,1745173816397744527
8211798,2066,2060,2043,2040,1745173816397744527
8212799,2054,2083,2026,2040,1745173816397744527
8213799,2044,2098,2006,2036,1745173816397744527
8214799,2040,2112,1988,2031,1745173816397744527
8215799,2036,2118,1978,2028,1745173816397744527
8216799,2033,2118,1971,2031,1745173816397744527
8217799,2034,2120,1969,2032,1745173816397744527
8218799,2028,2112,1969,2040,1745173816397744527
8219799,2024,2102,1972,2051,1745173816397744527
8220799,2024,2096,1982,2061,1745173816397744527
8221799,2022,2085,1995,2072,1745173816397744527
8222799,2026,2069,2007,2072,1745173816397744527
8223799,2033,2057,2026,2076,1745173816397744527
8224800,2039,2041,2042,2088,1745173816397744527
8225800,2043,2024,2057,2093,1745173816397744527
8226800,2051,2012,2072,2093,1745173816397744527
8227800,2053,2003,2082,2090,1745173816397744527
8228800,2054,1999,2088,2089,1745173816397744527
8229800,2056,2005,2095,2096,1745173816397744527
8230800,2053,2017,2100,2110,1745173816397744527
8231800,2052,2028,2091,2123,1745173816397744527
8232800,2044,2056,2077,2123,1745173816397744527
8233800,2037,2065,2061,2125,1745173816397744527
8234800,2027,2080,2042,2115,1745173816397744527
8235800,2021,2098,2030,2105,1745173816397744527
8236801,2010,2106,2019,2096,1745173816397744527
8237801,2003,2112,2014,2082,1745173816397744527
8238801,2006,2123,2024,2076,1745173816397744527
8239801,2010,2113,2018,2052,1745173816458116215
8240801,2009,2096,2022,2039,1745173816458116215
8241801,2018,2080,2034,2029,1745173816458116215
8242801,2022,2064,2050,2024,1745173816458116215
8243801,2028,2048,2062,2018,1745173816458116215
8244801,2033,2026,2075,2010,1745173816458116215
8245801,2040,2011,2085,2005,1745173816458116215
8246801,2048,1995,2092,2010,1745173816458116215
8247801,2056,1984,2096,2010,1745173816458116215
8248802,2062,1976,2096,2022,1745173816458116215
8249802,2081,1976,2093,2019,1745173816458116215
8250802,2074,1974,2085,2017,1745173816458116215
8251802,2070,1993,2087,2028,1745173816458116215
8252802,2150,2089,2148,2093,1745173816458116215
8253802,2137,2002,2024,1984,1745173816458116215
8254802,2022,1992,2009,1995,1745173816458116215
8255802,2019,2017,2006,2010,1745173816458116215
8256802,2016,2040,2005,2021,1745173816458116215
8257802,2076,2075,2012,2031,1745173816458116215
8258802,2013,2071,2001,2032,1745173816458116215
8259802,2005,2072,2004,2040,1745173816458116215
8260803,2010,2062,2010,2037,1745173816458116215
8261803,2012,2048,2028,2031,1745173816458116215
8262803,2016,2029,2050,2023,1745173816458116215
8263803,2026,2009,2070,2007,1745173816458116215
8264803,2032,1994,2089,1988,1745173816458116215
8265803,2038,1981,2104,1981,1745173816458116215
8266803,2050,1979,2120,1974,1745173816458116215
8267803,2055,1991,2133,1968,1745173816458116215
8268803,2058,1996,2138,1967,1745173816458116215
8269803,2058,2012,2139,1974,1745173816458116215
8270803,2055,2029,2134,1989,1745173816458116215
8271803,2052,2043,2122,2011,1745173816458116215
8272804,2053,2059,2102,2033,1745173816458116215
8273804,2051,2074,2082,2054,1745173816458116215
8274804,2042,2081,2059,2065,1745173816458116215
8275804,2037,2088,2028,2070,1745173816458116215
8276804,2024,2092,2000,2076,1745173816458116215
8277804,2012,2093,1974,2065,1745173816458116215
8278804,2004,2089,1963,2059,1745173816458116215
8279804,1996,2083,1960,2060,1745173816458116215
8280804,1994,2076,1962,2057,1745173816458116215
8281804,1995,2066,1970,2050,1745173816458116215
8282804,1998,2051,1986,2049,1745173816458116215
8283804,2004,2035,2000,2049,1745173816458116215
8284805,2016,2021,2020,2050,1745173816458116215
8285805,2021,2011,2036,2054,1745173816458116215
8286805,2032,1999,2049,2060,1745173816458116215
8287805,2044,1993,2060,2067,1745173816458116215
8288805,2051,1989,2067,2081,1745173816458116215
8289805,2056,1989,2069,2100,1745173816458116215
8290805,2060,1994,2067,2120,1745173816458116215
8291805,2064,2012,2058,2137,1745173816458116215
8292805,2066,2028,2051,2162,1745173816458116215
8293805,2062,2044,2038,2173,1745173816458116215
8294805,2064,2060,2029,2181,1745173816458116215
8295805,2064,2069,2028,2184,1745173816458116215
8296806,2066,2075,2029,2179,1745173816458116215
8297806,2069,2076,2030,2161,1745173816514863457
8298806,2068,2076,2033,2138,1745173816514863457
8299806,2066,2076,2036,2115,1745173816514863457
8300806,2066,2069,2040,2097,1745173816514863457
8301806,2068,2064,2052,2076,1745173816514863457
8302806,2072,2054,2062,2068,1745173816514863457
8303806,2070,2041,2068,2063,1745173816514863457
8304806,2075,2030,2073,2066,1745173816514863457
8305806,2076,2021,2075,2076,1745173816514863457
8306806,2078,2010,2077,2087,1745173816514863457
8307806,2084,2014,2082,2098,1745173816514863457
8308807,2101,1984,2022,2049,1745173816514863457
8309807,2032,1957,2014,2069,1745173816514863457
8310808,2060,1999,2034,2090,1745173816514863457
8311807,2084,2043,2069,2154,1745173816514863457
8312807,2114,2112,2141,2211,1745173816514863457
8313807,2176,2138,2025,2086,1745173816514863457
8314807,2048,2050,1986,2059,1745173816514863457
8315807,2034,2070,1984,2054,1745173816514863457
8316807,2031,2088,1987,2042,1745173816514863457
8317807,2032,2096,2001,2030,1745173816514863457
8318807,2101,2104,2003,2013,1745173816514863457
8319807,2038,2083,2005,1988,1745173816514863457
8320808,2041,2073,2015,1973,1745173816514863457
8321808,2052,2061,2027,1962,1745173816514863457
8322808,2062,2050,2044,1953,1745173816514863457
8323808,2070,2035,2063,1955,1745173816514863457
8324808,2081,2020,2075,1965,1745173816514863457
8325808,2087,2013,2083,1987,1745173816514863457
8326808,2091,2006,2085,2004,1745173816514863457
8327808,2093,2010,2084,2019,1745173816514863457
8328808,2086,2016,2080,2036,1745173816514863457
8329808,2078,2032,2070,2056,1745173816514863457
8330808,2067,2050,2065,2073,1745173816514863457
8331808,2064,2066,2057,2077,1745173816514863457
8332809,2059,2081,2048,2080,1745173816514863457
8333809,2059,2085,2034,2083,1745173816514863457
8334809,2064,2090,2024,2079,1745173816514863457
8335809,2062,2100,2021,2073,1745173816514863457
8336809,2061,2095,2017,2068,1745173816514863457
8337809,2060,2096,2008,2043,1745173816514863457
8338809,2052,2093,2003,2024,1745173816514863457
8339809,2041,2084,2002,2015,1745173816514863457
8340809,2040,2077,2012,2014,1745173816514863457
8341809,2048,2078,2013,2005,1745173816514863457
8342809,2037,2067,2013,1996,1745173816514863457
8343809,2029,2069,2014,2002,1745173816514863457
8344810,2017,2081,2016,2019,1745173816514863457
8345810,2008,2091,2014,2034,1745173816514863457
8346810,2001,2102,2011,2049,1745173816514863457
8347810,1990,2106,2016,2062,1745173816514863457
8348810,1996,2106,2017,2076,1745173816514863457
8349810,2001,2112,2019,2083,1745173816514863457
8350810,2005,2109,2026,2091,1745173816514863457
8351810,2013,2111,2027,2098,1745173816514863457
8352810,2022,2114,2020,2101,1745173816514863457
8353810,2032,2121,2020,2098,1745173816514863457
8354810,2036,2123,2018,2092,1745173816514863457
8355810,2041,2123,2010,2070,1745173816574353435
8356811,2043,2124,2000,2052,1745173816574353435
8357811,2045,2122,1995,2025,1745173816574353435
8358811,2048,2115,1992,2008,1745173816574353435
8359811,2048,2107,1995,1997,1745173816574353435
8360811,2049,2098,2000,1985,1745173816574353435
8361811,2050,2086,2013,1977,1745173816574353435
8362811,2053,2076,2029,1974,1745173816574353435
8363811,2059,2068,2042,1970,1745173816574353435
8364811,2064,2061,2060,1979,1745173816574353435
8365811,2064,2053,2073,1994,1745173816574353435
8366812,2070,2051,2076,1986,1745173816574353435
8367812,2062,2050,2082,1980,1745173816574353435
8368812,2064,2060,2093,1993,1745173816574353435
8369812,2113,2150,2163,2061,1745173816574353435
8370812,2121,2058,2050,1964,1745173816574353435
8371812,2005,2040,2031,1974,1745173816574353435
8372812,2006,2057,2027,1987,1745173816574353435
8373812,2011,2073,2020,1997,1745173816574353435
8374812,2053,2098,2026,2006,1745173816574353435
8375812,2024,2088,2011,1994,1745173816574353435
8376812,2027,2091,2010,1989,1745173816574353435
8377812,2034,2098,2020,1977,1745173816574353435
8378812,2041,2086,2022,1963,1745173816574353435
8379812,2053,2081,2031,1944,1745173816574353435
8380813,2060,2069,2038,1926,1745173816574353435
8381813,2067,2056,2054,1924,1745173816574353435
8382813,2074,2037,2068,1930,1745173816574353435
8383813,2079,2021,2084,1940,1745173816574353435
8384813,2083,2008,2100,1954,1745173816574353435
8385813,2083,2001,2113,1986,1745173816574353435
8386813,2076,2006,2118,2020,1745173816574353435
8387813,2075,2026,2120,2053,1745173816574353435
8388813,2068,2041,2116,2086,1745173816574353435
8389813,2063,2058,2106,2120,1745173816574353435
8390813,2058,2070,2094,2142,1745173816574353435
8391813,2056,2081,2080,2152,1745173816574353435
8392814,2053,2089,2073,2155,1745173816574353435
8393814,2053,2090,2068,2146,1745173816574353435
8394814,2061,2090,2066,2129,1745173816574353435
8395814,2072,2088,2066,2112,1745173816574353435
8396814,2077,2081,2069,2103,1745173816574353435
8397814,2088,2073,2073,2077,1745173816574353435
8398814,2094,2069,2070,2066,1745173816574353435
8399814,2094,2072,2068,2064,1745173816574353435
8400814,2088,2078,2064,2068,1745173816574353435
8401814,2080,2085,2057,2077,1745173816574353435
8402814,2066,2090,2054,2091,1745173816574353435
8403814,2053,2087,2053,2106,1745173816574353435
8404815,2042,2077,2053,2119,1745173816574353435
8405815,2040,2065,2058,2130,1745173816574353435
8406815,2040,2052,2059,2150,1745173816574353435
8407815,2037,2034,2062,2160,1745173816574353435
8408815,2037,2020,2060,2168,1745173816574353435
8409815,2037,2019,2061,2172,1745173816574353435
8410815,2034,2026,2053,2175,1745173816574353435
8411815,2032,2048,2040,2170,1745173816574353435
8412815,2026,2073,2030,2169,1745173816574353435
8413815,2022,2098,2018,2163,1745173816639566016
8414815,2019,2123,2008,2154,1745173816639566016
8415815,2013,2134,1997,2138,1745173816639566016
8416816,2010,2140,1989,2123,1745173816639566016
8417816,2015,2140,1989,2108,1745173816639566016
8418816,2018,2130,1990,2097,1745173816639566016
8419816,2029,2112,2013,2094,1745173816639566016
8420816,2040,2090,2032,2092,1745173816639566016
8421816,2051,2061,2056,2101,1745173816639566016
8422816,2065,2036,2077,2104,1745173816639566016
8423816,2076,2013,2094,2111,1745173816639566016
8424816,2088,2008,2120,2119,1745173816639566016
8425816,2113,1975,2074,2058,1745173816639566016
8426816,2042,1946,2074,2073,1745173816639566016
8427816,2066,1989,2085,2076,1745173816639566016
8428817,2082,2030,2106,2098,1745173816639566016
8429817,2097,2129,2166,2076,1745173816639566016
8430817,2074,2025,2027,2027,1745173816639566016
8431817,2042,2037,2013,2026,1745173816639566016
8432817,2035,2053,2003,2029,1745173816639566016
8433817,2036,2066,1993,2053,1745173816639566016
8434817,2051,2083,1996,2049,1745173816639566016
8435817,2040,2076,1985,2040,1745173816639566016
8436817,2043,2080,1986,2050,1745173816639566016
8437817,2050,2088,1993,2035,1745173816639566016
8438817,2049,2085,1998,2021,1745173816639566016
8439817,2051,2084,2006,2002,1745173816639566016
8440818,2053,2075,2020,1988,1745173816639566016
8441818,2053,2057,2030,1973,1745173816639566016
8442818,2058,2034,2050,1976,1745173816639566016
8443818,2074,2025,2077,1984,1745173816639566016
8444818,2075,2002,2089,1994,1745173816639566016
8445818,2074,1985,2103,2010,1745173816639566016
8446818,2077,1981,2112,2033,1745173816639566016
8447818,2077,1988,2120,2057,1745173816639566016
8448818,2074,1998,2113,2073,1745173816639566016
8449818,2066,2024,2101,2085,1745173816639566016
8450818,2051,2051,2086,2092,1745173816639566016
8451818,2049,2073,2060,2090,1745173816639566016
8452819,2036,2093,2037,2080,1745173816639566016
8453819,2027,2113,2014,2068,1745173816639566016
8454819,2019,2127,1998,2060,1745173816639566016
8455819,2020,2133,1987,2051,1745173816639566016
8456819,2013,2138,1984,2041,1745173816639566016
8457819,2012,2134,1986,2027,1745173816639566016
8458819,2013,2123,1987,2022,1745173816639566016
8459819,2019,2112,1997,2008,1745173816639566016
8460819,2022,2094,2012,1998,1745173816639566016
8461819,2026,2074,2028,1986,1745173816639566016
8462819,2034,2052,2049,1979,1745173816639566016
8463819,2042,2034,2065,1973,1745173816639566016
8464820,2048,2015,2082,1969,1745173816639566016
8465820,2056,2003,2094,1974,1745173816639566016
8466820,2060,1994,2100,1983,1745173816639566016
8467820,2062,1990,2100,2000,1745173816639566016
8468820,2061,1986,2093,2019,1745173816639566016
8469820,2061,1985,2089,2041,1745173816639566016
8470820,2059,1994,2084,2060,1745173816639566016
8471820,2054,2003,2075,2073,1745173816692504699
8472820,2050,2018,2063,2081,1745173816692504699
8473820,2044,2040,2050,2073,1745173816692504699
8474820,2033,2064,2037,2068,1745173816692504699
8475820,2024,2077,2031,2061,1745173816692504699
8476821,2018,2089,2021,2058,1745173816692504699
8477821,2011,2097,2016,2038,1745173816692504699
8478821,2004,2099,2010,2028,1745173816692504699
8479821,2002,2093,2004,2014,1745173816692504699
8480821,2004,2082,2006,1998,1745173816692504699
8481821,2006,2065,2013,1988,1745173816692504699
8482822,2014,2049,2016,1988,1745173816692504699
8483823,2030,2035,2020,1972,1745173816692504699
8484823,2019,2031,2066,1988,1745173816692504699
8485821,2006,1984,1988,1930,1745173816692504699
8486821,1981,1988,2016,1952,1745173816692504699
8487822,2016,2026,2069,1996,1745173816692504699
8488822,2053,2105,2060,1987,1745173816692504699
8489822,2032,2044,2037,1988,1745173816692504699
8490822,2028,2056,2032,2009,1745173816692504699
8491822,2027,2067,2025,2032,1745173816692504699
8492822,2028,2073,2016,2052,1745173816692504699
8493822,2030,2077,2003,2061,1745173816692504699
8494822,2035,2136,2096,2164,1745173816692504699
8495822,2056,2077,1978,2050,1745173816692504699
8496822,2021,2064,1971,2048,1745173816692504699
8497822,2024,2069,1978,2041,1745173816692504699
8498822,2022,2076,1982,2029,1745173816692504699
8499822,2022,2100,2005,2026,1745173816692504699
8500823,2083,2106,1998,1998,1745173816692504699
8501823,2008,2094,1997,1986,1745173816692504699
8502823,2003,2094,2007,1985,1745173816692504699
8503823,2009,2088,2020,1997,1745173816692504699
8504823,2019,2080,2038,2010,1745173816692504699
8505823,2028,2073,2055,2028,1745173816692504699
8506823,2033,2064,2063,2049,1745173816692504699
8507823,2036,2062,2069,2060,1745173816692504699
8508823,2037,2059,2073,2069,1745173816692504699
8509823,2037,2056,2076,2079,1745173816692504699
8510823,2041,2061,2073,2079,1745173816692504699
8511823,2042,2066,2068,2078,1745173816692504699
8512824,2048,2073,2064,2076,1745173816692504699
8513824,2048,2079,2058,2068,1745173816692504699
8514824,2053,2085,2053,2066,1745173816692504699
8515824,2055,2086,2053,2065,1745173816692504699
8516824,2060,2089,2053,2066,1745173816692504699
8517824,2064,2091,2058,2058,1745173816692504699
8518824,2061,2085,2061,2053,1745173816692504699
8519824,2060,2088,2067,2042,1745173816692504699
8520824,2056,2089,2074,2040,1745173816692504699
8521824,2052,2083,2078,2031,1745173816692504699
8522824,2049,2080,2082,2018,1745173816692504699
8523824,2038,2069,2089,2008,1745173816692504699
8524825,2034,2060,2093,2002,1745173816692504699
8525825,2036,2051,2095,2000,1745173816692504699
8526825,2040,2048,2093,2004,1745173816692504699
8527825,2042,2040,2093,2011,1745173816692504699
8528825,2049,2034,2088,2023,1745173816692504699
8529825,2054,2040,2088,2038,1745173816751654315
8530825,2061,2045,2081,2056,1745173816751654315
8531825,2063,2054,2072,2072,1745173816751654315
8532825,2062,2065,2065,2078,1745173816751654315
8533825,2060,2077,2057,2080,1745173816751654315
8534825,2057,2084,2053,2084,1745173816751654315
8535825,2056,2091,2050,2076,1745173816751654315
8536826,2054,2093,2051,2080,1745173816751654315
8537826,2057,2091,2055,2060,1745173816751654315
8538826,2058,2086,2057,2050,1745173816751654315
8539826,2061,2082,2060,2034,1745173816751654315
8540826,2062,2069,2069,2033,1745173816751654315
8541826,2067,2053,2078,2030,1745173816751654315
8542826,2073,2035,2096,2036,1745173816751654315
8543826,2087,2025,2111,2032,1745173816751654315
8544826,2076,2008,2123,2037,1745173816751654315
8545826,2078,2022,2149,2061,1745173816751654315
8546827,2089,2009,2142,2048,1745173816751654315
8547826,2086,2076,2246,2136,1745173816751654315
8548827,2092,1997,2126,2027,1745173816751654315
8549827,2062,1995,2122,2029,1745173816751654315
8550827,2059,2014,2116,2040,1745173816751654315
8551827,2052,2038,2101,2043,1745173816751654315
8552827,2060,2072,2091,2052,1745173816751654315
8553827,2027,2081,2057,2056,1745173816751654315
8554827,2016,2100,2040,2074,1745173816751654315
8555827,2016,2117,2027,2083,1745173816751654315
8556827,2014,2129,2014,2092,1745173816751654315
8557827,2012,2140,2008,2092,1745173816751654315
8558827,2010,2138,2002,2089,1745173816751654315
8559827,2008,2139,2003,2076,1745173816751654315
8560828,2009,2131,2012,2064,1745173816751654315
8561828,2011,2122,2028,2053,1745173816751654315
8562828,2016,2108,2048,2040,1745173816751654315
8563828,2022,2092,2066,2033,1745173816751654315
8564828,2029,2077,2081,2027,1745173816751654315
8565828,2036,2061,2090,2025,1745173816751654315
8566828,2045,2050,2092,2024,1745173816751654315
8567828,2051,2041,2096,2026,1745173816751654315
8568828,2052,2029,2089,2035,1745173816751654315
8569828,2057,2030,2084,2043,1745173816751654315
8570828,2059,2032,2075,2048,1745173816751654315
8571828,2060,2036,2066,2054,1745173816751654315
8572829,2063,2032,2054,2060,1745173816751654315
8573829,2061,2042,2042,2068,1745173816751654315
8574829,2072,2052,2037,2073,1745173816751654315
8575829,2074,2044,2040,2080,1745173816751654315
8576829,2083,2038,2046,2081,1745173816751654315
8577829,2086,2033,2057,2075,1745173816751654315
8578829,2094,2029,2064,2071,1745173816751654315
8579829,2099,2026,2068,2069,1745173816751654315
8580829,2099,2020,2072,2053,1745173816751654315
8581829,2102,2016,2075,2030,1745173816751654315
8582829,2089,2009,2069,2013,1745173816751654315
8583829,2082,2004,2069,1994,1745173816751654315
8584830,2074,2000,2068,1982,1745173816751654315
8585830,2069,1993,2073,1973,1745173816751654315
8586830,2069,1992,2073,1973,1745173816751654315
8587830,2070,1997,2072,1977,1745173816811354082
8588830,2065,2010,2068,1986,1745173816811354082
8589830,2054,2028,2063,1993,1745173816811354082
8590830,2042,2057,2053,2009,1745173816811354082
8591830,2028,2080,2040,2027,1745173816811354082
8592830,2017,2099,2026,2051,1745173816811354082
8593830,2011,2115,2014,2065,1745173816811354082
8594830,2011,2124,2011,2081,1745173816811354082
8595830,2009,2128,2007,2090,1745173816811354082
8596831,2016,2124,2011,2092,1745173816811354082
8597831,2024,2117,2017,2085,1745173816811354082
8598831,2030,2107,2025,2074,1745173816811354082
8599831,2037,2094,2032,2054,1745173816811354082
8600831,2045,2081,2042,2036,1745173816811354082
8601831,2052,2070,2067,2020,1745173816811354082
8602831,2053,2056,2066,1999,1745173816811354082
8603831,2051,2035,2070,1996,1745173816811354082
8604832,2060,2035,2077,1985,1745173816811354082
8605831,2042,2012,2144,2053,1745173816811354082
8606831,2066,2094,2191,2040,1745173816811354082
8607831,2050,1995,2086,2001,1745173816811354082
8608832,2024,1985,2090,2012,1745173816811354082
8609832,2028,1989,2093,2017,1745173816811354082
8610832,2034,1994,2096,2072,1745173816811354082
8611832,2051,2011,2089,2016,1745173816811354082
8612832,2040,2004,2074,2008,1745173816811354082
8613832,2037,2015,2064,2012,1745173816811354082
8614832,2035,2030,2054,2016,1745173816811354082
8615832,2035,2049,2041,2021,1745173816811354082
8616832,2028,2068,2034,2036,1745173816811354082
8617832,2026,2090,2034,2052,1745173816811354082
8618832,2024,2104,2028,2059,1745173816811354082
8619832,2024,2114,2030,2061,1745173816811354082
8620833,2025,2113,2031,2061,1745173816811354082
8621833,2028,2107,2038,2056,1745173816811354082
8622833,2032,2096,2052,2058,1745173816811354082
8623833,2036,2076,2061,2054,1745173816811354082
8624833,2043,2060,2073,2054,1745173816811354082
8625833,2050,2040,2081,2056,1745173816811354082
8626833,2056,2027,2088,2062,1745173816811354082
8627833,2062,2021,2088,2063,1745173816811354082
8628833,2063,2016,2083,2075,1745173816811354082
8629833,2060,2016,2078,2080,1745173816811354082
8630833,2062,2024,2070,2082,1745173816811354082
8631833,2053,2033,2061,2088,1745173816811354082
8632834,2048,2048,2049,2089,1745173816811354082
8633834,2041,2060,2038,2080,1745173816811354082
8634834,2037,2070,2030,2068,1745173816811354082
8635834,2033,2077,2023,2056,1745173816811354082
8636834,2033,2086,2018,2050,1745173816811354082
8637834,2039,2087,2016,2037,1745173816811354082
8638834,2040,2083,2018,2032,1745173816811354082
8639834,2044,2078,2019,2026,1745173816811354082
8640834,2049,2069,2028,2021,1745173816811354082
8641834,2048,2058,2036,2023,1745173816811354082
8642834,2050,2050,2054,2025,1745173816811354082
8643834,2051,2037,2067,2040,1745173816811354082
8644835,2050,2028,2081,2064,1745173816811354082
8645835,2053,2020,2092,2084,1745173816866487120
8646835,2050,2006,2094,2102,1745173816866487120
8647835,2055,2001,2097,2114,1745173816866487120
8648835,2066,2003,2106,2112,1745173816866487120
8649835,2067,1996,2100,2115,1745173816866487120
8650835,2072,1998,2098,2116,1745173816866487120
8651835,2076,2006,2089,2110,1745173816866487120
8652835,2077,2018,2075,2098,1745173816866487120
8653835,2078,2025,2061,2081,1745173816866487120
8654835,2082,2034,2048,2062,1745173816866487120
8655835,2084,2043,2033,2041,1745173816866487120
8656836,2082,2056,2021,2033,1745173816866487120
8657836,2074,2066,2009,2027,1745173816866487120
8658836,2062,2077,2000,2030,1745173816866487120
8659836,2048,2074,1995,2044,1745173816866487120
8660837,2046,2070,1994,2040,1745173816866487120
8661836,2036,2063,2001,2066,1745173816866487120
8662836,2049,2012,1974,2021,1745173816866487120
8663836,2006,1996,2002,2057,1745173816866487120
8664836,2053,2025,2033,2041,1745173816866487120
8665836,2071,2026,2035,2019,1745173816866487120
8666836,2108,2099,2135,2013,1745173816866487120
8667836,2045,1981,2020,1971,1745173816866487120
8668837,2027,1979,2024,1978,1745173816866487120
8669837,2030,1986,2015,1994,1745173816866487120
8670837,2033,1997,2009,2032,1745173816866487120
8671837,2043,2015,2004,2034,1745173816866487120
8672837,2029,2022,1981,2057,1745173816866487120
8673837,2030,2038,1972,2073,1745173816866487120
8674837,2029,2053,1960,2077,1745173816866487120
8675837,2032,2067,1956,2071,1745173816866487120
8676837,2031,2081,1953,2062,1745173816866487120
8677837,2033,2102,1954,2058,1745173816866487120
8678837,2032,2096,1955,2042,1745173816866487120
8679837,2030,2101,1964,2036,1745173816866487120
8680838,2029,2101,1974,2037,1745173816866487120
8681838,2029,2098,1988,2041,1745173816866487120
8682838,2028,2094,2005,2048,1745173816866487120
8683838,2030,2082,2024,2060,1745173816866487120
8684838,2032,2070,2040,2069,1745173816866487120
8685838,2037,2061,2058,2088,1745173816866487120
8686838,2042,2052,2068,2102,1745173816866487120
8687838,2050,2049,2069,2114,1745173816866487120
8688838,2053,2051,2070,2126,1745173816866487120
8689838,2053,2054,2070,2129,1745173816866487120
8690838,2052,2062,2058,2121,1745173816866487120
8691838,2049,2076,2044,2116,1745173816866487120
8692839,2040,2087,2027,2106,1745173816866487120
8693839,2037,2094,2013,2098,1745173816866487120
8694839,2031,2104,2003,2096,1745173816866487120
8695839,2028,2109,1997,2100,1745173816866487120
8696839,2026,2108,1997,2098,1745173816866487120
8697839,2028,2105,2001,2091,1745173816866487120
8698839,2028,2093,2011,2084,1745173816866487120
8699839,2034,2077,2017,2069,1745173816866487120
8700839,2040,2061,2032,2053,1745173816866487120
8701839,2049,2037,2052,2038,1745173816866487120
8702839,2058,2013,2069,2025,1745173816866487120
8703839,2068,1998,2083,2019,1745173816926821361
8704840,2070,1986,2095,2014,1745173816926821361
8705840,2072,1981,2101,2020,1745173816926821361
8706840,2073,1985,2106,2026,1745173816926821361
8707840,2071,1989,2108,2034,1745173816926821361
8708840,2069,1994,2103,2040,1745173816926821361
8709840,2067,2005,2089,2048,1745173816926821361
8710840,2064,2019,2072,2052,1745173816926821361
8711840,2057,2032,2053,2061,1745173816926821361
8712840,2052,2048,2027,2065,1745173816926821361
8713840,2045,2064,2010,2068,1745173816926821361
8714840,2037,2072,1994,2074,1745173816926821361
8715840,2032,2080,1979,2074,1745173816926821361
8716841,2027,2091,1971,2068,1745173816926821361
8717841,2021,2095,1968,2065,1745173816926821361
8718841,2016,2110,1972,2054,1745173816926821361
8719841,2009,2100,1971,2034,1745173816926821361
8720841,2005,2092,1982,2027,1745173816926821361
8721843,2021,2172,2078,2016,1745173816926821361
8722843,2005,2041,1985,1965,1745173816926821361
8723841,1990,2017,2004,1957,1745173816926821361
8724841,2001,2006,2027,1953,1745173816926821361
8725841,2013,1995,2045,2010,1745173816926821361
8726841,2040,1994,2060,1957,1745173816926821361
8727841,2031,1983,2063,1970,1745173816926821361
8728842,2037,1977,2064,1985,1745173816926821361
8729842,2049,1984,2065,2006,1745173816926821361
8730842,2053,1992,2057,2024,1745173816926821361
8731842,2053,2002,2049,2042,1745173816926821361
8732842,2052,2017,2034,2057,1745173816926821361
8733842,2045,2034,2020,2064,1745173816926821361
8734842,2035,2056,2006,2063,1745173816926821361
8735842,2026,2069,1993,2059,1745173816926821361
8736842,2023,2082,1984,2050,1745173816926821361
8737842,2023,2083,1979,2034,1745173816926821361
8738842,2017,2078,1976,2027,1745173816926821361
8739842,2021,2069,1980,2018,1745173816926821361
8740843,2027,2057,1994,2018,1745173816926821361
8741843,2033,2038,2005,2014,1745173816926821361
8742843,2042,2020,2022,2014,1745173816926821361
8743843,2053,2006,2037,2026,1745173816926821361
8744843,2061,1990,2057,2036,1745173816926821361
8745843,2072,1979,2066,2052,1745173816926821361
8746843,2076,1968,2077,2068,1745173816926821361
8747843,2080,1961,2083,2075,1745173816926821361
8748843,2080,1954,2084,2085,1745173816926821361
8749843,2083,1964,2085,2096,1745173816926821361
8750843,2091,1992,2088,2116,1745173816926821361
8751843,2084,2011,2068,2116,1745173816926821361
8752844,2068,2034,2048,2109,1745173816926821361
8753844,2054,2063,2025,2102,1745173816926821361
8754844,2038,2090,2005,2097,1745173816926821361
8755844,2024,2117,1992,2083,1745173816926821361
8756844,2011,2144,1985,2074,1745173816926821361
8757844,1998,2163,1975,2052,1745173816926821361
8758844,1988,2178,1972,2025,1745173816926821361
8759844,1980,2186,1972,2004,1745173816926821361
8760844,1977,2180,1973,1992,1745173816926821361
8761844,1980,2168,1981,1985,1745173816985026819
8762844,1986,2149,1992,1978,1745173816985026819
8763844,1993,2127,2007,1978,1745173816985026819
8764845,2002,2104,2019,1980,1745173816985026819
8765845,2011,2087,2032,1989,1745173816985026819
8766845,2018,2071,2045,2008,1745173816985026819
8767845,2026,2065,2054,2030,1745173816985026819
8768845,2031,2062,2060,2052,1745173816985026819
8769845,2035,2060,2061,2077,1745173816985026819
8770845,2036,2062,2054,2097,1745173816985026819
8771845,2037,2069,2043,2102,1745173816985026819
8772845,2038,2075,2036,2100,1745173816985026819
8773845,2037,2077,2027,2089,1745173816985026819
8774845,2044,2075,2018,2074,1745173816985026819
8775845,2049,2076,2016,2054,1745173816985026819
8776846,2056,2082,2060,2057,1745173816985026819
8777846,2028,2024,1963,1976,1745173816985026819
8778846,2009,2020,1974,1981,1745173816985026819
8779846,2037,2044,2011,2008,1745173816985026819
8780846,2058,2060,2036,2051,1745173816985026819
8781846,2165,2088,2114,2131,1745173816985026819
8782846,2181,2073,2042,2020,1745173816985026819
8783846,2065,2036,2035,2026,1745173816985026819
8784846,2053,2033,2050,2042,1745173816985026819
8785846,2048,2027,2059,2051,1745173816985026819
8786846,2066,2043,2074,2060,1745173816985026819
8787846,2048,2021,2074,2062,1745173816985026819
8788847,2038,2018,2081,2066,1745173816985026819
8789847,2049,2016,2083,2069,1745173816985026819
8790847,2054,2015,2086,2062,1745173816985026819
8791847,2061,2008,2081,2059,1745173816985026819
8792847,2074,2002,2076,2054,1745173816985026819
8793847,2086,1995,2073,2050,1745173816985026819
8794847,2096,1988,2066,2057,1745173816985026819
8795847,2108,1987,2060,2064,1745173816985026819
8796847,2107,1989,2056,2082,1745173816985026819
8797847,2105,1998,2051,2101,1745173816985026819
8798847,2100,2010,2043,2118,1745173816985026819
8799847,2090,2030,2042,2129,1745173816985026819
8800848,2074,2054,2043,2123,1745173816985026819
8801848,2057,2075,2042,2106,1745173816985026819
8802848,2036,2096,2044,2080,1745173816985026819
8803848,2024,2106,2041,2062,1745173816985026819
8804848,2019,2114,2042,2049,1745173816985026819
8805848,2016,2120,2044,2049,1745173816985026819
8806848,2011,2126,2045,2050,1745173816985026819
8807848,2005,2126,2048,2054,1745173816985026819
8808848,2003,2130,2049,2055,1745173816985026819
8809849,2001,2128,2048,2061,1745173816985026819
8810848,2002,2124,2042,2072,1745173816985026819
8811848,2008,2128,2034,2074,1745173816985026819
8812849,2011,2130,2026,2080,1745173816985026819
8813849,2013,2133,2017,2082,1745173816985026819
8814849,2016,2134,2006,2076,1745173816985026819
8815849,2019,2138,2001,2072,1745173816985026819
8816849,2020,2141,1995,2067,1745173816985026819
8817849,2019,2139,1993,2064,1745173816985026819
8818849,2022,2137,1992,2052,1745173816985026819
8819849,2026,2130,1994,2040,1745173817044162685
8820849,2029,2117,2001,2036,1745173817044162685
8821849,2036,2096,2009,2033,1745173817044162685
8822849,2049,2073,2024,2027,1745173817044162685
8823849,2059,2049,2041,2021,1745173817044162685
8824850,2068,2020,2058,2022,1745173817044162685
8825850,2081,1997,2064,2020,1745173817044162685
8826850,2092,1979,2080,2027,1745173817044162685
8827850,2101,1964,2086,2036,1745173817044162685
8828850,2106,1957,2093,2043,1745173817044162685
8829850,2110,1963,2090,2057,1745173817044162685
8830850,2107,1976,2085,2067,1745173817044162685
8831850,2098,2000,2074,2081,1745173817044162685
8832850,2088,2028,2058,2088,1745173817044162685
8833850,2073,2067,2048,2094,1745173817044162685
8834850,2059,2092,2028,2099,1745173817044162685
8835850,2049,2134,2017,2095,1745173817044162685
8836851,2035,2142,2009,2084,1745173817044162685
8837851,2037,2125,1963,2018,1745173817044162685
8838851,1995,2129,1968,2028,1745173817044162685
8839852,2051,2214,2017,2112,1745173817044162685
8840851,2135,2176,2013,1999,1745173817044162685
8841851,2024,2111,2008,1981,1745173817044162685
8842851,2025,2096,2027,1981,1745173817044162685
8843852,2025,2085,2040,1982,1745173817044162685
8844851,2039,2090,2072,1994,1745173817044162685
8845851,2050,2058,2062,1991,1745173817044162685
8846851,2048,2041,2065,2001,1745173817044162685
8847851,2053,2040,2072,2013,1745173817044162685
8848852,2056,2028,2074,2021,1745173817044162685
8849852,2061,2028,2070,2033,1745173817044162685
8850852,2066,2027,2068,2038,1745173817044162685
8851852,2064,2026,2058,2052,1745173817044162685
8852852,2068,2027,2059,2075,1745173817044162685
8853852,2083,2040,2043,2078,1745173817044162685
8854852,2075,2035,2030,2084,1745173817044162685
8855852,2076,2034,2026,2082,1745173817044162685
8856852,2080,2040,2033,2078,1745173817044162685
8857852,2082,2048,2041,2082,1745173817044162685
8858852,2085,2050,2050,2074,1745173817044162685
8859852,2091,2052,2059,2062,1745173817044162685
8860853,2098,2048,2065,2049,1745173817044162685
8861853,2104,2035,2066,2031,1745173817044162685
8862853,2114,2026,2065,2019,1745173817044162685
8863853,2115,2020,2068,2016,1745173817044162685
8864853,2104,2018,2066,2018,1745173817044162685
8865853,2086,2027,2064,2019,1745173817044162685
8866853,2067,2041,2064,2019,1745173817044162685
8867853,2050,2060,2059,2028,1745173817044162685
8868853,2036,2072,2051,2036,1745173817044162685
8869853,2031,2081,2042,2043,1745173817044162685
8870853,2029,2087,2035,2059,1745173817044162685
8871853,2027,2092,2027,2075,1745173817044162685
8872854,2029,2099,2018,2094,1745173817044162685
8873854,2033,2104,2011,2112,1745173817044162685
8874854,2033,2108,2005,2133,1745173817044162685
8875854,2036,2112,2002,2147,1745173817044162685
8876854,2037,2117,2003,2161,1745173817044162685
8877854,2038,2123,2009,2173,1745173817099356347
8878854,2040,2124,2017,2170,1745173817099356347
8879854,2043,2122,2022,2155,1745173817099356347
8880854,2042,2116,2030,2136,1745173817099356347
8881854,2043,2107,2037,2106,1745173817099356347
8882854,2042,2095,2042,2078,1745173817099356347
8883854,2040,2088,2051,2049,1745173817099356347
8884855,2038,2075,2059,2027,1745173817099356347
8885855,2038,2063,2069,2018,1745173817099356347
8886855,2042,2049,2075,2015,1745173817099356347
8887855,2051,2041,2086,2020,1745173817099356347
8888855,2052,2033,2096,2034,1745173817099356347
8889855,2058,2029,2096,2048,1745173817099356347
8890855,2062,2032,2096,2073,1745173817099356347
8891855,2064,2041,2089,2092,1745173817099356347
8892855,2064,2050,2077,2106,1745173817099356347
8893855,2066,2055,2057,2128,1745173817099356347
8894855,2070,2069,2037,2118,1745173817099356347
8895855,2068,2084,2028,2074,1745173817099356347
8896856,2012,2035,1972,2073,1745173817099356347
8897856,2024,2058,1980,2076,1745173817099356347
8898856,2069,2170,2003,2137,1745173817099356347
8899856,2152,2194,1997,2058,1745173817099356347
8900856,2032,2082,1969,2032,1745173817099356347
8901856,2026,2082,1980,2034,1745173817099356347
8902856,2028,2080,1992,2037,1745173817099356347
8903856,2030,2075,2003,2044,1745173817099356347
8904856,2035,2064,2022,2061,1745173817099356347
8905856,2051,2078,2031,2054,1745173817099356347
8906856,2050,2033,2025,2049,1745173817099356347
8907856,2049,2027,2030,2054,1745173817099356347
8908857,2054,2019,2036,2064,1745173817099356347
8909857,2062,2012,2041,2077,1745173817099356347
8910857,2072,2010,2043,2093,1745173817099356347
8911857,2077,2009,2044,2114,1745173817099356347
8912857,2083,2003,2044,2130,1745173817099356347
8913857,2090,2000,2050,2133,1745173817099356347
8914857,2095,2003,2051,2140,1745173817099356347
8915857,2096,2006,2054,2145,1745173817099356347
8916857,2100,2019,2054,2148,1745173817099356347
8917857,2101,2036,2057,2131,1745173817099356347
8918857,2094,2052,2056,2113,1745173817099356347
8919857,2089,2068,2052,2084,1745173817099356347
8920858,2079,2079,2045,2043,1745173817099356347
8921858,2064,2085,2037,2005,1745173817099356347
8922858,2049,2090,2032,1966,1745173817099356347
8923858,2031,2078,2031,1944,1745173817099356347
8924858,2027,2065,2040,1932,1745173817099356347
8925858,2025,2050,2054,1939,1745173817099356347
8926858,2026,2029,2062,1952,1745173817099356347
8927858,2029,2038,2073,1971,1745173817099356347
8928858,2028,2038,2081,1997,1745173817099356347
8929858,2025,2043,2082,2021,1745173817099356347
8930858,2022,2061,2077,2043,1745173817099356347
8931858,2021,2078,2076,2059,1745173817099356347
8932859,2018,2091,2065,2069,1745173817099356347
8933859,2015,2108,2056,2071,1745173817099356347
8934859,2009,2118,2043,2068,1745173817099356347
8935859,2004,2121,2033,2061,1745173817158000603
8936859,2007,2123,2032,2063,1745173817158000603
8937859,2016,2120,2036,2044,1745173817158000603
8938859,2011,2100,2042,2032,1745173817158000603
8939859,2018,2083,2052,2015,1745173817158000603
8940859,2026,2067,2067,2002,1745173817158000603
8941859,2037,2043,2085,1995,1745173817158000603
8942859,2049,2021,2105,1989,1745173817158000603
8943859,2060,2005,2124,1996,1745173817158000603
8944860,2067,1993,2138,2003,1745173817158000603
8945860,2074,1980,2148,2012,1745173817158000603
8946860,2075,1978,2154,2024,1745173817158000603
8947860,2073,1982,2153,2033,1745173817158000603
8948860,2068,1987,2142,2038,1745173817158000603
8949860,2068,2000,2134,2051,1745173817158000603
8950860,2062,2017,2108,2050,1745173817158000603
8951860,2052,2032,2080,2043,1745173817158000603
8952860,2054,2068,2061,2048,1745173817158000603
8953860,2034,2073,2034,2052,1745173817158000603
8954860,2028,2091,2025,2070,1745173817158000603
8955861,2044,2123,2102,2161,1745173817158000603
8956861,2040,2128,1996,2049,1745173817158000603
8957861,2007,2120,1985,2037,1745173817158000603
8958861,2003,2121,1988,2040,1745173817158000603
8959861,2005,2116,1996,2032,1745173817158000603
8960861,2030,2112,2022,2024,1745173817158000603
8961861,2019,2080,2026,2015,1745173817158000603
8962861,2029,2057,2040,2011,1745173817158000603
8963861,2037,2035,2065,2013,1745173817158000603
8964861,2050,2015,2080,2016,1745173817158000603
8965861,2059,2005,2092,2014,1745173817158000603
8966861,2065,1993,2109,2020,1745173817158000603
8967861,2072,1990,2116,2019,1745173817158000603
8968862,2076,1989,2120,2025,1745173817158000603
8969862,2075,1996,2125,2035,1745173817158000603
8970862,2074,2004,2118,2045,1745173817158000603
8971862,2077,2021,2112,2053,1745173817158000603
8972862,2072,2035,2100,2065,1745173817158000603
8973862,2066,2049,2081,2077,1745173817158000603
8974862,2063,2061,2064,2084,1745173817158000603
8975862,2056,2075,2050,2088,1745173817158000603
8976862,2052,2085,2030,2080,1745173817158000603
8977862,2042,2090,2021,2063,1745173817158000603
8978862,2036,2091,2012,2048,1745173817158000603
8979862,2030,2088,2015,2030,1745173817158000603
8980863,2032,2080,2018,2013,1745173817158000603
8981863,2032,2076,2036,2000,1745173817158000603
8982863,2030,2068,2050,1989,1745173817158000603
8983863,2028,2060,2057,1977,1745173817158000603
8984863,2027,2058,2061,1971,1745173817158000603
8985863,2022,2051,2060,1966,1745173817158000603
8986863,2020,2049,2056,1970,1745173817158000603
8987863,2020,2049,2057,1973,1745173817158000603
8988863,2019,2043,2052,1980,1745173817158000603
8989863,2020,2040,2057,1989,1745173817158000603
8990863,2024,2037,2053,1997,1745173817158000603
8991863,2024,2034,2050,2000,1745173817158000603
8992864,2030,2037,2042,2005,1745173817158000603
8993864,2037,2043,2038,2002,1745173817226789402
8994864,2042,2052,2035,2003,1745173817226789402
8995864,2053,2054,2032,2003,1745173817226789402
8996864,2061,2059,2027,1997,1745173817226789402
8997864,2065,2064,2029,2002,1745173817226789402
8998864,2067,2074,2026,2010,1745173817226789402
8999864,2066,2085,2022,2013,1745173817226789402
9000864,2062,2098,2020,2022,1745173817226789402
9001864,2051,2100,2021,2024,1745173817226789402
9002864,2043,2097,2024,2028,1745173817226789402
9003864,2041,2084,2033,2026,1745173817226789402
9004865,2037,2070,2044,2028,1745173817226789402
9005865,2034,2055,2057,2026,1745173817226789402
9006865,2034,2036,2066,2024,1745173817226789402
9007865,2037,2024,2077,2020,1745173817226789402
9008865,2043,2010,2090,2013,1745173817226789402
9009865,2054,1997,2093,2003,1745173817226789402
9010865,2062,1996,2118,2068,1745173817226789402
9011865,2084,1996,2101,1983,1745173817226789402
9012865,2063,2005,2095,1980,1745173817226789402
9013865,2070,2037,2099,1990,1745173817226789402
9014865,2057,2041,2072,2000,1745173817226789402
9015865,2050,2131,2134,2041,1745173817226789402
9016866,2142,2126,2057,2043,1745173817226789402
9017866,2018,2094,2024,2060,1745173817226789402
9018866,2003,2182,2028,2083,1745173817226789402
9019866,2000,2140,2012,2077,1745173817226789402
9020866,1982,2142,2011,2076,1745173817226789402
9021866,1987,2137,2022,2069,1745173817226789402
9022866,1992,2123,2038,2059,1745173817226789402
9023866,2001,2102,2054,2052,1745173817226789402
9024866,2016,2078,2068,2038,1745173817226789402
9025866,2024,2057,2078,2034,1745173817226789402
9026866,2033,2034,2085,2043,1745173817226789402
9027866,2044,2020,2091,2056,1745173817226789402
9028867,2056,2006,2093,2075,1745173817226789402
9029867,2064,1997,2089,2086,1745173817226789402
9030867,2072,1996,2084,2089,1745173817226789402
9031867,2075,2005,2070,2081,1745173817226789402
9032867,2072,2017,2049,2073,1745173817226789402
9033867,2056,2032,2027,2061,1745173817226789402
9034867,2060,2053,2008,2049,1745173817226789402
9035867,2050,2072,1989,2033,1745173817226789402
9036867,2037,2085,1977,2025,1745173817226789402
9037867,2033,2098,1968,2005,1745173817226789402
9038867,2027,2092,1968,1996,1745173817226789402
9039867,2025,2096,1972,1994,1745173817226789402
9040868,2027,2089,1976,1992,1745173817226789402
9041868,2029,2077,1989,1992,1745173817226789402
9042868,2030,2064,2001,1993,1745173817226789402
9043868,2036,2052,2011,1996,1745173817226789402
9044868,2037,2039,2026,1994,1745173817226789402
9045868,2040,2027,2033,1998,1745173817226789402
9046868,2044,2016,2039,1999,1745173817226789402
9047868,2046,2012,2042,2002,1745173817226789402
9048868,2050,2009,2043,2014,1745173817226789402
9049868,2052,2009,2038,2026,1745173817226789402
9050868,2053,2015,2034,2035,1745173817226789402
9051868,2053,2025,2028,2042,1745173817275640935
9052869,2053,2035,2021,2053,1745173817275640935
9053869,2053,2053,2008,2054,1745173817275640935
9054869,2052,2065,2003,2050,1745173817275640935
9055869,2051,2069,1998,2038,1745173817275640935
9056869,2049,2070,1995,2031,1745173817275640935
9057869,2057,2080,2004,2025,1745173817275640935
9058869,2069,2069,2004,2008,1745173817275640935
9059869,2068,2056,2005,1994,1745173817275640935
9060869,2069,2050,2014,1987,1745173817275640935
9061869,2070,2038,2026,1982,1745173817275640935
9062869,2075,2026,2038,1986,1745173817275640935
9063869,2077,2017,2056,1996,1745173817275640935
9064870,2074,2009,2072,2009,1745173817275640935
9065870,2073,2004,2081,2027,1745173817275640935
9066870,2066,2006,2089,2051,1745173817275640935
9067870,2061,2009,2090,2077,1745173817275640935
9068870,2057,2012,2090,2113,1745173817275640935
9069871,2067,2056,2106,2088,1745173817275640935
9070870,2009,1972,2038,2086,1745173817275640935
9071870,2015,1984,2057,2116,1745173817275640935
9072872,2061,2019,2069,2132,1745173817275640935
9073870,2097,2068,2156,2160,1745173817275640935
9074870,2104,2064,2074,2121,1745173817275640935
9075870,2096,2068,2057,2103,1745173817275640935
9076871,2090,2078,2048,2082,1745173817275640935
9077871,2083,2085,2032,2062,1745173817275640935
9078871,2072,2096,2019,2049,1745173817275640935
9079871,2058,2107,2008,2049,1745173817275640935
9080871,2041,2113,1996,2049,1745173817275640935
9081871,2022,2121,2086,2145,1745173817275640935
9082871,2032,2116,1988,2032,1745173817275640935
9083871,1989,2095,1998,2028,1745173817275640935
9084871,1985,2086,2012,2027,1745173817275640935
9085871,1987,2076,2027,2025,1745173817275640935
9086871,1989,2071,2040,2026,1745173817275640935
9087871,2048,2080,2054,2035,1745173817275640935
9088872,1994,2068,2042,2034,1745173817275640935
9089872,1993,2074,2040,2048,1745173817275640935
9090872,1997,2080,2029,2059,1745173817275640935
9091872,2004,2086,2016,2065,1745173817275640935
9092873,2011,2093,2005,2073,1745173817275640935
9093872,2011,2098,1995,2075,1745173817275640935
9094872,2016,2101,1989,2077,1745173817275640935
9095872,2020,2104,1988,2073,1745173817275640935
9096872,2025,2102,1992,2068,1745173817275640935
9097872,2029,2100,2000,2067,1745173817275640935
9098872,2036,2092,2009,2069,1745173817275640935
9099872,2042,2084,2022,2076,1745173817275640935
9100873,2044,2070,2037,2078,1745173817275640935
9101873,2053,2054,2052,2093,1745173817275640935
9102873,2061,2038,2065,2076,1745173817275640935
9103873,2065,2020,2078,2076,1745173817275640935
9104873,2071,2006,2086,2068,1745173817275640935
9105873,2076,1997,2085,2058,1745173817275640935
9106873,2077,1992,2080,2051,1745173817275640935
9107873,2075,1993,2073,2050,1745173817275640935
9108873,2070,1996,2056,2044,1745173817275640935
9109873,2065,2005,2042,2050,1745173817335973821
9110873,2060,2024,2032,2053,1745173817335973821
9111873,2054,2044,2019,2057,1745173817335973821
9112874,2048,2064,2005,2058,1745173817335973821
9113874,2042,2078,1993,2054,1745173817335973821
9114874,2041,2093,1987,2052,1745173817335973821
9115874,2038,2100,1988,2041,1745173817335973821
9116874,2040,2101,1988,2032,1745173817335973821
9117874,2043,2105,1992,2020,1745173817335973821
9118874,2045,2104,2002,2014,1745173817335973821
9119874,2049,2096,2010,2013,1745173817335973821
9120874,2052,2084,2020,2009,1745173817335973821
9121874,2052,2068,2036,2017,1745173817335973821
9122874,2057,2045,2058,2022,1745173817335973821
9123874,2065,2021,2073,2027,1745173817335973821
9124875,2075,2001,2093,2029,1745173817335973821
9125875,2084,1982,2105,2033,1745173817335973821
9126875,2090,1965,2112,2040,1745173817335973821
9127875,2099,1958,2122,2057,1745173817335973821
9128875,2106,1955,2106,2056,1745173817335973821
9129875,2102,1958,2098,2070,1745173817335973821
9130875,2108,1987,2176,2128,1745173817335973821
9131877,2102,1997,2055,2049,1745173817335973821
9132875,2056,2021,2035,2059,1745173817335973821
9133875,2041,2064,2018,2067,1745173817335973821
9134875,2031,2099,2010,2078,1745173817335973821
9135875,2022,2127,1999,2085,1745173817335973821
9136876,2066,2160,2001,2089,1745173817335973821
9137876,2012,2158,1990,2087,1745173817335973821
9138876,2010,2155,1994,2080,1745173817335973821
9139876,2019,2144,2002,2070,1745173817335973821
9140876,2031,2122,2013,2060,1745173817335973821
9141876,2048,2092,2030,2054,1745173817335973821
9142876,2064,2061,2044,2041,1745173817335973821
9143876,2074,2029,2064,2033,1745173817335973821
9144876,2083,2008,2076,2028,1745173817335973821
9145876,2085,1994,2084,2025,1745173817335973821
9146876,2088,1990,2087,2038,1745173817335973821
9147876,2082,2000,2088,2040,1745173817335973821
9148877,2067,2013,2079,2051,1745173817335973821
9149877,2048,2033,2066,2057,1745173817335973821
9150877,2033,2056,2052,2068,1745173817335973821
9151877,2019,2073,2036,2077,1745173817335973821
9152877,2011,2086,2021,2090,1745173817335973821
9153877,2009,2099,2008,2096,1745173817335973821
9154877,2006,2109,2005,2100,1745173817335973821
9155877,2007,2109,1993,2098,1745173817335973821
9156877,2013,2105,1995,2094,1745173817335973821
9157877,2018,2099,2000,2083,1745173817335973821
9158877,2019,2088,2006,2075,1745173817335973821
9159877,2026,2081,2024,2075,1745173817335973821
9160878,2043,2077,2041,2069,1745173817335973821
9161878,2042,2059,2048,2060,1745173817335973821
9162878,2051,2044,2062,2062,1745173817335973821
9163878,2056,2034,2076,2061,1745173817335973821
9164878,2054,2022,2083,2050,1745173817335973821
9165878,2049,2017,2084,2034,1745173817335973821
9166878,2052,2010,2088,2025,1745173817335973821
9167878,2050,2002,2085,2013,1745173817392538304
9168878,2052,1996,2083,2006,1745173817392538304
9169878,2051,1996,2080,1997,1745173817392538304
9170878,2055,2003,2075,2000,1745173817392538304
9171878,2057,2010,2064,2000,1745173817392538304
9172879,2056,2026,2049,2003,1745173817392538304
9173879,2056,2048,2036,2005,1745173817392538304
9174879,2048,2064,2024,2009,1745173817392538304
9175879,2048,2078,2016,2015,1745173817392538304
9176879,2041,2094,2009,2009,1745173817392538304
9177879,2036,2095,2010,2011,1745173817392538304
9178879,2036,2091,2009,2014,1745173817392538304
9179879,2037,2083,2014,2011,1745173817392538304
9180879,2042,2068,2022,2017,1745173817392538304
9181879,2048,2049,2034,2015,1745173817392538304
9182879,2054,2028,2044,2021,1745173817392538304
9183879,2059,2011,2061,2020,1745173817392538304
9184880,2066,1989,2073,2024,1745173817392538304
9185880,2080,1970,2085,2023,1745173817392538304
9186881,2104,1965,2099,2018,1745173817392538304
9187880,2105,1912,2044,1948,1745173817392538304
9188880,2050,1908,2062,1984,1745173817392538304
9189881,2086,1936,2088,2028,1745173817392538304
9190880,2126,2010,2109,2101,1745173817392538304
9191880,2206,2022,2083,2037,1745173817392538304
9192880,2074,2016,2048,2048,1745173817392538304
9193880,2053,2043,2027,2068,1745173817392538304
9194880,2037,2061,2015,2080,1745173817392538304
9195880,2034,2072,2003,2081,1745173817392538304
9196881,2035,2077,2052,2091,1745173817392538304
9197881,2038,2073,2003,2078,1745173817392538304
9198881,2032,2064,2000,2078,1745173817392538304
9199881,2035,2060,2009,2083,1745173817392538304
9200881,2035,2050,2021,2090,1745173817392538304
9201881,2040,2042,2037,2098,1745173817392538304
9202881,2043,2037,2057,2107,1745173817392538304
9203881,2044,2033,2074,2114,1745173817392538304
9204881,2048,2032,2081,2117,1745173817392538304
9205881,2042,2034,2082,2122,1745173817392538304
9206881,2039,2040,2084,2121,1745173817392538304
9207881,2035,2052,2085,2121,1745173817392538304
9208882,2030,2060,2078,2111,1745173817392538304
9209882,2029,2077,2067,2100,1745173817392538304
9210882,2021,2088,2054,2096,1745173817392538304
9211882,2018,2094,2035,2083,1745173817392538304
9212882,2018,2109,2018,2077,1745173817392538304
9213882,2019,2118,2004,2072,1745173817392538304
9214882,2020,2123,1991,2063,1745173817392538304
9215882,2022,2125,1979,2053,1745173817392538304
9216882,2019,2127,1974,2040,1745173817392538304
9217882,2014,2121,1972,2032,1745173817392538304
9218882,2018,2114,1976,2013,1745173817392538304
9219882,2020,2095,1980,2001,1745173817392538304
9220883,2026,2075,1995,1994,1745173817392538304
9221883,2034,2058,2008,2000,1745173817392538304
9222883,2042,2037,2026,2009,1745173817392538304
9223883,2048,2017,2043,2025,1745173817392538304
9224884,2053,2000,2060,2045,1745173817392538304
9225883,2061,1989,2074,2070,1745173817453112022
9226883,2064,1981,2083,2085,1745173817453112022
9227883,2069,1981,2083,2094,1745173817453112022
9228883,2069,1981,2082,2098,1745173817453112022
9229883,2072,1981,2075,2091,1745173817453112022
9230883,2076,1989,2066,2076,1745173817453112022
9231883,2075,1999,2056,2061,1745173817453112022
9232884,2070,2010,2038,2050,1745173817453112022
9233884,2065,2025,2026,2039,1745173817453112022
9234884,2058,2035,2012,2037,1745173817453112022
9235884,2053,2038,2009,2037,1745173817453112022
9236884,2052,2039,2010,2045,1745173817453112022
9237884,2053,2048,2013,2036,1745173817453112022
9238884,2051,2050,2019,2035,1745173817453112022
9239884,2050,2051,2025,2030,1745173817453112022
9240884,2051,2051,2038,2020,1745173817453112022
9241884,2052,2050,2058,2016,1745173817453112022
9242884,2051,2048,2073,2019,1745173817453112022
9243884,2052,2048,2084,2025,1745173817453112022
9244885,2053,2045,2105,2042,1745173817453112022
9245885,2052,2040,2098,2049,1745173817453112022
9246885,2050,2035,2101,2062,1745173817453112022
9247885,2061,2051,2206,2069,1745173817453112022
9248885,2056,2028,2085,2033,1745173817453112022
9249885,2033,2027,2081,2044,1745173817453112022
9250885,2038,2037,2074,2058,1745173817453112022
9251885,2043,2051,2062,2068,1745173817453112022
9252885,2048,2062,2043,2106,1745173817453112022
9253885,2064,2078,2020,2096,1745173817453112022
9254885,2042,2081,1998,2112,1745173817453112022
9255885,2041,2085,1992,2134,1745173817453112022
9256886,2041,2091,1989,2150,1745173817453112022
9257886,2050,2091,2000,2160,1745173817453112022
9258886,2053,2081,2012,2169,1745173817453112022
9259886,2062,2076,2026,2163,1745173817453112022
9260886,2067,2068,2040,2144,1745173817453112022
9261886,2069,2059,2059,2128,1745173817453112022
9262886,2082,2061,2079,2112,1745173817453112022
9263886,2082,2050,2078,2082,1745173817453112022
9264886,2072,2032,2080,2057,1745173817453112022
9265886,2062,2030,2072,2037,1745173817453112022
9266886,2049,2038,2057,2026,1745173817453112022
9267886,2031,2052,2043,2016,1745173817453112022
9268887,2022,2057,2028,2022,1745173817453112022
9269887,2020,2066,2022,2032,1745173817453112022
9270887,2019,2076,2016,2049,1745173817453112022
9271887,2016,2085,2012,2064,1745173817453112022
9272887,2017,2096,2011,2078,1745173817453112022
9273887,2016,2114,2004,2081,1745173817453112022
9274887,2013,2125,1996,2081,1745173817453112022
9275887,2016,2132,1988,2073,1745173817453112022
9276887,2017,2134,1980,2060,1745173817453112022
9277887,2020,2129,1981,2051,1745173817453112022
9278887,2028,2117,1978,2034,1745173817453112022
9279887,2035,2101,1990,2030,1745173817453112022
9280888,2048,2084,2002,2020,1745173817453112022
9281888,2056,2068,2016,2008,1745173817453112022
9282888,2060,2050,2035,1998,1745173817453112022
9283888,2065,2036,2054,1988,1745173817509721349
9284888,2065,2032,2070,1985,1745173817509721349
9285888,2065,2026,2086,1989,1745173817509721349
9286888,2062,2022,2093,2000,1745173817509721349
9287888,2061,2030,2096,2012,1745173817509721349
9288888,2059,2035,2104,2044,1745173817509721349
9289888,2053,2040,2097,2075,1745173817509721349
9290888,2056,2052,2086,2104,1745173817509721349
9291888,2054,2059,2075,2128,1745173817509721349
9292889,2051,2067,2058,2139,1745173817509721349
9293889,2049,2076,2042,2141,1745173817509721349
9294889,2048,2080,2033,2136,1745173817509721349
9295889,2048,2076,2030,2121,1745173817509721349
9296889,2050,2076,2027,2099,1745173817509721349
9297889,2053,2079,2033,2073,1745173817509721349
9298889,2052,2079,2037,2051,1745173817509721349
9299889,2056,2080,2048,2025,1745173817509721349
9300889,2059,2075,2052,2011,1745173817509721349
9301889,2061,2067,2065,2004,1745173817509721349
9302889,2064,2053,2077,2011,1745173817509721349
9303889,2088,2053,2117,2002,1745173817509721349
9304890,2036,1987,2052,1950,1745173817509721349
9305890,2021,1992,2077,1995,1745173817509721349
9306890,2051,2003,2096,2029,1745173817509721349
9307890,2094,2041,2124,2070,1745173817509721349
9308890,2185,2067,2108,2077,1745173817509721349
9309890,2069,2011,2079,2097,1745173817509721349
9310890,2065,2018,2070,2130,1745173817509721349
9311890,2068,2030,2056,2153,1745173817509721349
9312890,2064,2050,2038,2176,1745173817509721349
9313890,2057,2066,2022,2196,1745173817509721349
9314890,2059,2090,2011,2170,1745173817509721349
9315890,2036,2093,1997,2158,1745173817509721349
9316891,2037,2105,1998,2142,1745173817509721349
9317891,2027,2112,2001,2125,1745173817509721349
9318891,2028,2110,2010,2104,1745173817509721349
9319891,2030,2101,2022,2085,1745173817509721349
9320891,2036,2088,2033,2058,1745173817509721349
9321891,2043,2072,2052,2032,1745173817509721349
9322891,2048,2060,2065,2025,1745173817509721349
9323891,2044,2052,2070,2019,1745173817509721349
9324891,2041,2045,2076,2019,1745173817509721349
9325891,2035,2043,2078,2017,1745173817509721349
9326891,2035,2048,2075,2013,1745173817509721349
9327891,2028,2054,2067,2020,1745173817509721349
9328892,2021,2056,2061,2023,1745173817509721349
9329892,2016,2062,2048,2027,1745173817509721349
9330892,2013,2077,2034,2024,1745173817509721349
9331892,2008,2088,2019,2017,1745173817509721349
9332892,2008,2100,2005,2010,1745173817509721349
9333892,2009,2109,1994,1998,1745173817509721349
9334892,2012,2111,1993,1992,1745173817509721349
9335892,2017,2109,1987,1986,1745173817509721349
9336892,2026,2105,1991,1996,1745173817509721349
9337892,2033,2093,1997,1989,1745173817509721349
9338892,2041,2078,2003,1993,1745173817509721349
9339892,2053,2064,2016,1998,1745173817509721349
9340893,2060,2048,2028,2008,1745173817509721349
9341893,2066,2034,2049,2012,1745173817572069060
9342893,2069,2028,2066,2016,1745173817572069060
9343893,2069,2029,2086,2020,1745173817572069060
9344893,2066,2030,2100,2021,1745173817572069060
9345893,2067,2026,2108,2025,1745173817572069060
9346893,2070,2022,2114,2028,1745173817572069060
9347893,2072,2015,2115,2035,1745173817572069060
9348893,2077,2012,2109,2038,1745173817572069060
9349893,2078,2016,2104,2040,1745173817572069060
9350893,2073,2027,2097,2051,1745173817572069060
9351893,2065,2041,2085,2058,1745173817572069060
9352894,2057,2060,2076,2065,1745173817572069060
9353894,2052,2072,2073,2075,1745173817572069060
9354894,2056,2077,2065,2089,1745173817572069060
9355894,2064,2080,2064,2095,1745173817572069060
9356894,2073,2082,2067,2102,1745173817572069060
9357894,2081,2073,2064,2101,1745173817572069060
9358894,2089,2064,2059,2084,1745173817572069060
9359894,2088,2062,2050,2066,1745173817572069060
9360894,2085,2037,2041,2044,1745173817572069060
9361894,2088,2034,2048,2027,1745173817572069060
9362894,2080,2017,2038,2018,1745173817572069060
9363894,2066,2009,2052,2029,1745173817572069060
9364895,2074,2016,2121,2133,1745173817572069060
9365895,2067,2029,2044,2032,1745173817572069060
9366895,2029,2024,2032,2032,1745173817572069060
9367895,2011,2041,2033,2038,1745173817572069060
9368895,2001,2064,2028,2041,1745173817572069060
9369895,1999,2084,2018,2049,1745173817572069060
9370895,2015,2121,2019,2057,1745173817572069060
9371895,1999,2118,1996,2051,1745173817572069060
9372895,2001,2130,1987,2054,1745173817572069060
9373895,2004,2142,1978,2058,1745173817572069060
9374895,2008,2147,1973,2057,1745173817572069060
9375895,2014,2147,1974,2050,1745173817572069060
9376896,2024,2144,1977,2034,1745173817572069060
9377896,2031,2139,1984,2021,1745173817572069060
9378896,2036,2123,1993,2004,1745173817572069060
9379896,2050,2105,2005,1993,1745173817572069060
9380896,2059,2084,2018,1989,1745173817572069060
9381896,2067,2061,2034,1996,1745173817572069060
9382896,2076,2035,2051,2003,1745173817572069060
9383896,2087,2018,2068,2018,1745173817572069060
9384896,2091,2006,2084,2038,1745173817572069060
9385896,2092,1994,2093,2060,1745173817572069060
9386896,2092,1986,2094,2077,1745173817572069060
9387896,2090,1986,2099,2093,1745173817572069060
9388897,2086,1982,2100,2109,1745173817572069060
9389897,2083,1986,2102,2115,1745173817572069060
9390897,2085,1996,2098,2110,1745173817572069060
9391897,2080,2008,2089,2096,1745173817572069060
9392897,2075,2021,2076,2082,1745173817572069060
9393897,2074,2035,2065,2068,1745173817572069060
9394897,2070,2053,2057,2062,1745173817572069060
9395897,2065,2065,2056,2054,1745173817572069060
9396897,2062,2076,2040,2049,1745173817572069060
9397897,2059,2088,2032,2032,1745173817572069060
9398897,2051,2090,2025,2013,1745173817572069060
9399897,2048,2089,2014,1993,1745173817626158827
9400898,2036,2085,2011,1973,1745173817626158827
9401898,2034,2077,2009,1964,1745173817626158827
9402898,2028,2066,2013,1968,1745173817626158827
9403898,2024,2054,2020,1956,1745173817626158827
9404898,2020,2044,2028,1965,1745173817626158827
9405898,2017,2037,2039,1981,1745173817626158827
9406898,2017,2036,2042,2003,1745173817626158827
9407898,2017,2041,2048,2024,1745173817626158827
9408898,2018,2044,2052,2045,1745173817626158827
9409898,2024,2050,2057,2066,1745173817626158827
9410898,2029,2058,2054,2074,1745173817626158827
9411898,2033,2062,2054,2081,1745173817626158827
9412899,2041,2072,2048,2084,1745173817626158827
9413899,2053,2076,2041,2084,1745173817626158827
9414899,2062,2076,2042,2077,1745173817626158827
9415899,2074,2076,2043,2068,1745173817626158827
9416899,2080,2076,2049,2059,1745173817626158827
9417899,2082,2076,2052,2054,1745173817626158827
9418899,2084,2076,2049,2041,1745173817626158827
9419899,2081,2070,2054,2037,1745173817626158827
9420899,2080,2062,2049,2017,1745173817626158827
9421899,2075,2054,2048,1995,1745173817626158827
9422901,2075,2061,2044,1988,1745173817626158827
9423899,2052,2035,2016,1976,1745173817626158827
9424900,2037,2030,2016,1986,1745173817626158827
9425900,2029,2029,2017,2004,1745173817626158827
9426900,2027,2027,2081,2028,1745173817626158827
9427900,2121,2050,2027,2030,1745173817626158827
9428900,2011,2017,2012,2037,1745173817626158827
9429900,2012,2024,2022,2059,1745173817626158827
9430900,2017,2028,2027,2076,1745173817626158827
9431900,2023,2036,2026,2089,1745173817626158827
9432900,2028,2069,2041,2105,1745173817626158827
9433900,2036,2053,2020,2098,1745173817626158827
9434900,2030,2057,2018,2092,1745173817626158827
9435900,2033,2062,2022,2088,1745173817626158827
9436901,2034,2065,2027,2083,1745173817626158827
9437901,2037,2076,2031,2070,1745173817626158827
9438901,2032,2077,2041,2059,1745173817626158827
9439901,2032,2077,2056,2050,1745173817626158827
9440901,2034,2072,2066,2036,1745173817626158827
9441901,2035,2061,2082,2029,1745173817626158827
9442901,2041,2048,2097,2021,1745173817626158827
9443901,2048,2030,2109,2018,1745173817626158827
9444901,2051,2016,2115,2019,1745173817626158827
9445901,2056,2006,2115,2017,1745173817626158827
9446901,2056,2001,2117,2023,1745173817626158827
9447901,2056,1998,2111,2032,1745173817626158827
9448902,2057,1994,2102,2049,1745173817626158827
9449902,2056,2003,2096,2060,1745173817626158827
9450902,2053,2015,2085,2072,1745173817626158827
9451902,2048,2030,2072,2079,1745173817626158827
9452902,2043,2057,2053,2085,1745173817626158827
9453902,2037,2082,2036,2090,1745173817626158827
9454902,2028,2108,2019,2084,1745173817626158827
9455902,2024,2128,2003,2067,1745173817626158827
9456902,2017,2147,1988,2038,1745173817626158827
9457902,2014,2154,1982,2012,1745173817686632962
9458902,2017,2147,1974,1989,1745173817686632962
9459902,2021,2132,1974,1969,1745173817686632962
9460903,2027,2104,1989,1958,1745173817686632962
9461903,2036,2069,2006,1954,1745173817686632962
9462903,2053,2038,2035,1961,1745173817686632962
9463903,2065,2014,2063,1969,1745173817686632962
9464903,2072,1993,2082,1988,1745173817686632962
9465903,2076,1980,2093,2008,1745173817686632962
9466903,2077,1978,2104,2053,1745173817686632962
9467903,2091,1994,2118,2074,1745173817686632962
9468903,2083,2003,2107,2088,1745173817686632962
9469903,2068,2023,2101,2102,1745173817686632962
9470903,2061,2048,2084,2114,1745173817686632962
9471903,2055,2067,2072,2123,1745173817686632962
9472904,2050,2083,2057,2125,1745173817686632962
9473904,2049,2096,2040,2120,1745173817686632962
9474904,2042,2108,2029,2112,1745173817686632962
9475904,2037,2114,2020,2099,1745173817686632962
9476904,2034,2116,2014,2076,1745173817686632962
9477904,2034,2120,2003,2052,1745173817686632962
9478905,2038,2128,2003,2025,1745173817686632962
9479904,2033,2119,1998,2002,1745173817686632962
9480904,2026,2123,2011,2002,1745173817686632962
9481905,2102,2150,2020,1970,1745173817686632962
9482905,2002,2080,2009,1957,1745173817686632962
9483904,1997,2066,2029,1971,1745173817686632962
9484905,2003,2052,2044,1993,1745173817686632962
9485905,2010,2041,2064,2022,1745173817686632962
9486905,2015,2033,2091,2067,1745173817686632962
9487905,2032,2030,2075,2073,1745173817686632962
9488905,2029,2019,2074,2091,1745173817686632962
9489905,2035,2017,2075,2113,1745173817686632962
9490905,2052,2020,2072,2129,1745173817686632962
9491905,2059,2026,2066,2140,1745173817686632962
9492905,2063,2032,2057,2142,1745173817686632962
9493905,2069,2038,2050,2137,1745173817686632962
9494905,2073,2041,2041,2120,1745173817686632962
9495905,2077,2040,2038,2091,1745173817686632962
9496906,2082,2040,2038,2063,1745173817686632962
9497906,2086,2048,2041,2036,1745173817686632962
9498906,2085,2052,2037,2010,1745173817686632962
9499906,2081,2057,2031,1982,1745173817686632962
9500906,2076,2061,2024,1955,1745173817686632962
9501906,2075,2061,2019,1932,1745173817686632962
9502906,2065,2058,2013,1912,1745173817686632962
9503906,2057,2057,2016,1908,1745173817686632962
9504906,2049,2049,2017,1916,1745173817686632962
9505906,2043,2038,2024,1932,1745173817686632962
9506906,2043,2030,2032,1952,1745173817686632962
9507906,2037,2024,2038,1977,1745173817686632962
9508907,2038,2017,2040,1996,1745173817686632962
9509907,2038,2018,2044,2016,1745173817686632962
9510907,2035,2025,2041,2038,1745173817686632962
9511907,2036,2041,2037,2056,1745173817686632962
9512907,2035,2064,2038,2067,1745173817686632962
9513907,2030,2084,2034,2081,1745173817686632962
9514907,2032,2108,2029,2092,1745173817686632962
9515907,2025,2124,2028,2101,1745173817743185518
9516907,2019,2136,2025,2111,1745173817743185518
9517907,2020,2140,2024,2112,1745173817743185518
9518907,2021,2136,2027,2108,1745173817743185518
9519907,2020,2121,2030,2105,1745173817743185518
9520908,2028,2106,2040,2100,1745173817743185518
9521908,2033,2083,2044,2094,1745173817743185518
9522908,2038,2068,2054,2083,1745173817743185518
9523908,2038,2051,2063,2072,1745173817743185518
9524908,2038,2033,2073,2064,1745173817743185518
9525908,2044,2018,2076,2068,1745173817743185518
9526908,2052,2005,2084,2083,1745173817743185518
9527908,2053,1994,2094,2101,1745173817743185518
9528908,2059,1987,2100,2115,1745173817743185518
9529908,2065,1990,2101,2127,1745173817743185518
9530908,2069,2001,2101,2133,1745173817743185518
9531908,2072,2011,2090,2132,1745173817743185518
9532909,2070,2029,2080,2114,1745173817743185518
9533909,2062,2054,2066,2081,1745173817743185518
9534909,2053,2077,2053,2035,1745173817743185518
9535909,2040,2092,2030,1994,1745173817743185518
9536909,2035,2102,2030,1984,1745173817743185518
9537910,2036,2125,2017,1936,1745173817743185518
9538909,1980,2053,1966,1950,1745173817743185518
9539909,1997,2075,1996,1985,1745173817743185518
9540909,2020,2085,2033,2034,1745173817743185518
9541909,2067,2102,2118,2050,1745173817743185518
9542909,2052,2075,2017,2023,1745173817743185518
9543909,2027,2057,2025,2024,1745173817743185518
9544910,2026,2048,2036,2029,1745173817743185518
9545910,2030,2032,2042,2024,1745173817743185518
9546910,2033,2024,2054,2018,1745173817743185518
9547910,2037,2022,2057,2016,1745173817743185518
9548910,2040,2021,2057,2020,1745173817743185518
9549910,2061,2045,2064,2038,1745173817743185518
9550910,2041,2035,2041,2037,1745173817743185518
9551910,2033,2058,2031,2056,1745173817743185518
9552910,2032,2076,2020,2061,1745173817743185518
9553910,2031,2085,2016,2061,1745173817743185518
9554910,2035,2090,2013,2052,1745173817743185518
9555910,2041,2088,2004,2051,1745173817743185518
9556911,2050,2084,2009,2050,1745173817743185518
9557911,2056,2081,2010,2059,1745173817743185518
9558911,2062,2072,2009,2064,1745173817743185518
9559911,2063,2065,2009,2074,1745173817743185518
9560911,2066,2056,2010,2084,1745173817743185518
9561911,2068,2048,2013,2085,1745173817743185518
9562911,2070,2034,2022,2082,1745173817743185518
9563911,2074,2014,2035,2076,1745173817743185518
9564911,2088,2000,2053,2067,1745173817743185518
9565911,2090,1980,2070,2053,1745173817743185518
9566911,2092,1968,2086,2050,1745173817743185518
9567911,2098,1958,2091,2053,1745173817743185518
9568912,2100,1956,2102,2066,1745173817743185518
9569912,2099,1977,2115,2088,1745173817743185518
9570912,2104,1990,2105,2093,1745173817743185518
9571912,2085,2016,2089,2097,1745173817743185518
9572912,2067,2049,2069,2093,1745173817743185518
9573912,2049,2080,2045,2076,1745173817803584966
9574912,2033,2107,2019,2058,1745173817803584966
9575912,2023,2127,1998,2036,1745173817803584966
9576912,2016,2138,1983,2016,1745173817803584966
9577912,2010,2142,1969,2005,1745173817803584966
9578912,2005,2144,1966,2003,1745173817803584966
9579912,1998,2137,1969,2016,1745173817803584966
9580913,1995,2122,1981,2032,1745173817803584966
9581913,1998,2105,1996,2052,1745173817803584966
9582913,2002,2089,2017,2072,1745173817803584966
9583913,2008,2069,2038,2095,1745173817803584966
9584913,2020,2054,2058,2107,1745173817803584966
9585913,2030,2037,2068,2106,1745173817803584966
9586913,2038,2017,2081,2096,1745173817803584966
9587913,2050,2000,2083,2066,1745173817803584966
9588913,2058,1988,2088,2033,1745173817803584966
9589913,2059,1984,2090,2014,1745173817803584966
9590913,2058,1988,2086,1995,1745173817803584966
9591913,2056,1997,2079,1983,1745173817803584966
9592914,2051,2020,2070,1988,1745173817803584966
9593914,2040,2044,2054,2009,1745173817803584966
9594914,2030,2077,2034,2036,1745173817803584966
9595915,2029,2104,2026,2064,1745173817803584966
9596915,2013,2113,2016,2074,1745173817803584966
9597914,2012,2122,2019,2096,1745173817803584966
9598914,2074,2210,2030,2077,1745173817803584966
9599915,2008,2093,2008,2053,1745173817803584966
9600914,2011,2081,2021,2040,1745173817803584966
9601914,2025,2066,2037,2021,1745173817803584966
9602914,2037,2052,2058,2002,1745173817803584966
9603914,2048,2038,2091,2001,1745173817803584966
9604915,2059,2028,2079,1986,1745173817803584966
9605915,2043,2024,2080,1986,1745173817803584966
9606915,2041,2027,2083,1996,1745173817803584966
9607915,2038,2036,2083,2011,1745173817803584966
9608915,2037,2048,2085,2025,1745173817803584966
9609915,2037,2060,2084,2040,1745173817803584966
9610915,2037,2070,2083,2048,1745173817803584966
9611915,2038,2081,2076,2052,1745173817803584966
9612915,2041,2086,2072,2053,1745173817803584966
9613915,2044,2091,2070,2054,1745173817803584966
9614915,2052,2089,2066,2057,1745173817803584966
9615915,2062,2081,2065,2066,1745173817803584966
9616916,2076,2066,2069,2077,1745173817803584966
9617916,2091,2054,2073,2089,1745173817803584966
9618916,2104,2030,2077,2097,1745173817803584966
9619916,2115,2022,2085,2097,1745173817803584966
9620916,2116,2006,2093,2094,1745173817803584966
9621916,2111,2001,2109,2099,1745173817803584966
9622916,2108,1995,2121,2096,1745173817803584966
9623916,2107,2000,2140,2085,1745173817803584966
9624916,2103,2003,2133,2067,1745173817803584966
9625916,2098,2002,2129,2048,1745173817803584966
9626916,2099,1998,2117,2027,1745173817803584966
9627916,2098,2000,2108,2008,1745173817803584966
9628917,2095,2004,2090,1995,1745173817803584966
9629917,2088,2017,2068,1993,1745173817803584966
9630917,2074,2040,2040,1993,1745173817803584966
9631917,2053,2066,2008,1995,1745173817860997202
9632917,2033,2084,1981,2001,1745173817860997202
9633917,2017,2105,1962,2010,1745173817860997202
9634917,2005,2117,1949,2028,1745173817860997202
9635917,2002,2125,1945,2059,1745173817860997202
9636917,2005,2129,1944,2087,1745173817860997202
9637917,2013,2132,1955,2085,1745173817860997202
9638917,2014,2129,1963,2089,1745173817860997202
9639917,2021,2117,1974,2083,1745173817860997202
9640918,2028,2108,1987,2068,1745173817860997202
9641918,2031,2099,2001,2052,1745173817860997202
9642918,2032,2093,2015,2034,1745173817860997202
9643918,2028,2094,2028,2013,1745173817860997202
9644918,2021,2091,2034,2001,1745173817860997202
9645918,2013,2086,2042,2000,1745173817860997202
9646918,2013,2084,2050,2008,1745173817860997202
9647918,2013,2083,2053,2012,1745173817860997202
9648918,2012,2075,2055,2024,1745173817860997202
9649918,2017,2077,2053,2038,1745173817860997202
9650918,2024,2078,2044,2052,1745173817860997202
9651918,2026,2079,2037,2064,1745173817860997202
9652919,2035,2081,2031,2076,1745173817860997202
9653919,2041,2088,2032,2102,1745173817860997202
9654919,2056,2100,2025,2043,1745173817860997202
9655919,2000,2040,1973,2028,1745173817860997202
9656920,2019,2065,2003,2042,1745173817860997202
9657919,2049,2082,2036,2074,1745173817860997202
9658919,2117,2097,2120,2067,1745173817860997202
9659919,2101,2060,2018,2034,1745173817860997202
9660919,2083,2033,2029,2037,1745173817860997202
9661919,2088,2018,2048,2057,1745173817860997202
9662919,2092,2009,2067,2082,1745173817860997202
9663919,2094,1999,2084,2123,1745173817860997202
9664920,2115,1998,2107,2125,1745173817860997202
9665920,2096,1978,2106,2136,1745173817860997202
9666920,2096,1966,2113,2145,1745173817860997202
9667920,2098,1961,2107,2133,1745173817860997202
9668920,2090,1951,2097,2100,1745173817860997202
9669920,2082,1949,2080,2065,1745173817860997202
9670920,2073,1952,2053,2032,1745173817860997202
9671920,2064,1966,2036,2025,1745173817860997202
9672920,2060,1994,2021,2028,1745173817860997202
9673920,2040,2011,2001,2026,1745173817860997202
9674920,2022,2038,2004,2028,1745173817860997202
9675920,2013,2059,2011,2024,1745173817860997202
9676921,2014,2068,2021,2008,1745173817860997202
9677921,2022,2069,2033,1984,1745173817860997202
9678921,2029,2057,2044,1958,1745173817860997202
9679921,2042,2030,2057,1939,1745173817860997202
9680921,2061,2003,2068,1925,1745173817860997202
9681921,2075,1976,2078,1920,1745173817860997202
9682921,2088,1952,2089,1919,1745173817860997202
9683921,2091,1940,2084,1918,1745173817860997202
9684921,2089,1931,2088,1926,1745173817860997202
9685921,2086,1925,2087,1940,1745173817860997202
9686921,2090,1930,2091,1961,1745173817860997202
9687921,2093,1938,2098,1977,1745173817860997202
9688922,2092,1943,2103,1988,1745173817860997202
9689922,2094,1956,2109,2003,1745173817920627855
9690922,2092,1982,2104,2024,1745173817920627855
9691922,2086,2014,2093,2048,1745173817920627855
9692922,2076,2050,2066,2073,1745173817920627855
9693922,2062,2081,2028,2092,1745173817920627855
9694922,2044,2106,1993,2097,1745173817920627855
9695922,2028,2124,1966,2097,1745173817920627855
9696922,2017,2137,1947,2093,1745173817920627855
9697922,2012,2150,1945,2091,1745173817920627855
9698922,2005,2154,1954,2091,1745173817920627855
9699922,2008,2156,1972,2083,1745173817920627855
9700923,2013,2158,1993,2062,1745173817920627855
9701923,2013,2166,2023,2041,1745173817920627855
9702923,2012,2176,2052,2021,1745173817920627855
9703923,2011,2179,2081,2006,1745173817920627855
9704923,2004,2168,2111,1995,1745173817920627855
9705923,2008,2146,2129,1990,1745173817920627855
9706923,2022,2115,2141,1989,1745173817920627855
9707923,2041,2080,2146,2003,1745173817920627855
9708923,2057,2037,2148,2025,1745173817920627855
9709923,2077,2006,2144,2044,1745173817920627855
9710923,2093,1983,2138,2062,1745173817920627855
9711923,2099,1972,2128,2081,1745173817920627855
9712924,2117,1974,2107,2076,1745173817920627855
9713924,2110,1963,2086,2040,1745173817920627855
9714924,2116,1965,2085,2000,1745173817920627855
9715924,2136,1956,2070,1938,1745173817920627855
9716924,2229,1962,2043,1927,1745173817920627855
9717924,2121,1946,2030,1968,1745173817920627855
9718924,2100,1974,2037,2037,1745173817920627855
9719924,2080,2011,2053,2106,1745173817920627855
9720924,2064,2048,2068,2157,1745173817920627855
9721924,2049,2086,2096,2209,1745173817920627855
9722924,2050,2049,2095,2232,1745173817920627855
9723924,2058,2008,2112,2250,1745173817920627855
9724925,2081,1954,2126,2242,1745173817920627855
9725925,2106,1898,2138,2197,1745173817920627855
9726925,2130,1851,2138,2133,1745173817920627855
9727925,2145,1828,2128,2068,1745173817920627855
9728925,2132,1826,2107,2028,1745173817920627855
9729925,2108,1863,2076,2025,1745173817920627855
9730925,2066,1929,2037,2038,1745173817920627855
9731925,2011,2004,1996,2070,1745173817920627855
9732925,1968,2070,1961,2090,1745173817920627855
9733925,1946,2110,1932,2086,1745173817920627855
9734925,1944,2116,1920,2062,1745173817920627855
9735925,1962,2093,1928,2034,1745173817920627855
9736926,1995,2059,1948,2011,1745173817920627855
9737926,2040,2022,1970,1981,1745173817920627855
9738926,2077,1980,1993,1952,1745173817920627855
9739926,2114,1944,2001,1918,1745173817920627855
9740926,2134,1930,2006,1890,1745173817920627855
9741926,2121,1938,1997,1888,1745173817920627855
9742926,2085,1958,1974,1909,1745173817920627855
9743926,2048,1985,1948,1942,1745173817920627855
9744926,2006,2011,1934,1998,1745173817920627855
9745927,1979,2031,1935,2077,1745173817920627855
9746926,1957,2051,1949,2160,1745173817920627855
9747926,1951,2070,1976,2233,1745173817979479714
9748927,1940,2080,2002,2292,1745173817979479714
9749927,1948,2078,2022,2318,1745173817979479714
9750927,1964,2066,2036,2301,1745173817979479714
9751927,1993,2050,2050,2267,1745173817979479714
9752927,2019,2040,2057,2251,1745173817979479714
9753927,2036,2052,2054,2243,1745173817979479714
9754927,2043,2074,2040,2229,1745173817979479714
9755927,2048,2083,2023,2198,1745173817979479714
9756927,2066,2070,2005,2144,1745173817979479714
9757927,2103,2033,1997,2082,1745173817979479714
9758927,2142,1978,1998,2017,1745173817979479714
9759927,2184,1920,2012,1969,1745173817979479714
9760928,2210,1889,2037,1936,1745173817979479714
9761928,2197,1908,2072,1918,1745173817979479714
9762928,2141,1979,2098,1929,1745173817979479714
9763928,2067,2090,2105,1990,1745173817979479714
9764928,1987,2204,2105,2085,1745173817979479714
9765928,1932,2296,2101,2179,1745173817979479714
9766928,1904,2354,2103,2251,1745173817979479714
9767928,1914,2368,2102,2275,1745173817979479714
9768928,1939,2346,2110,2273,1745173817979479714
9769928,1984,2293,2123,2228,1745173817979479714
9770928,2029,2233,2147,2185,1745173817979479714
9771928,2074,2166,2142,2146,1745173817979479714
9772929,2123,2110,2124,2078,1745173817979479714
9773929,2131,2080,2116,2003,1745173817979479714
9774929,2162,2040,2122,1963,1745173817979479714
9775929,2146,1993,2230,1958,1745173817979479714
9776929,2166,1939,2163,1899,1745173817979479714
9777929,2163,1894,2191,1888,1745173817979479714
9778929,2178,1864,2204,1892,1745173817979479714
9779929,2189,1832,2192,1906,1745173817979479714
9780929,2201,1792,2166,1940,1745173817979479714
9781929,2234,1764,2156,1928,1745173817979479714
9782929,2202,1715,2139,1934,1745173817979479714
9783929,2174,1738,2118,1956,1745173817979479714
9784930,2117,1824,2081,1984,1745173817979479714
9785930,2042,1938,2021,1997,1745173817979479714
9786930,1978,2029,1968,1957,1745173817979479714
9787930,1946,2074,1942,1896,1745173817979479714
9788930,1931,2074,1947,1851,1745173817979479714
9789930,1934,2091,1964,1860,1745173817979479714
9790930,1941,2125,1986,1916,1745173817979479714
9791930,1961,2155,2005,2006,1745173817979479714
9792930,1994,2166,2026,2100,1745173817979479714
9793930,2028,2170,2038,2188,1745173817979479714
9794930,2056,2188,2032,2233,1745173817979479714
9795930,2054,2226,2003,2224,1745173817979479714
9796931,2030,2266,1969,2160,1745173817979479714
9797931,2011,2282,1947,2059,1745173817979479714
9798931,2000,2269,1946,1944,1745173817979479714
9799931,2011,2237,1956,1837,1745173817979479714
9800931,2034,2181,1977,1752,1745173817979479714
9801931,2072,2100,2004,1691,1745173817979479714
9802931,2115,1998,2042,1664,1745173817979479714
9803931,2152,1912,2093,1648,1745173817979479714
9804931,2162,1875,2127,1648,1745173817979479714
9805931,2130,1902,2124,1678,1745173818035352068
9806931,2072,1968,2089,1720,1745173818035352068
9807931,2019,2033,2044,1738,1745173818035352068
9808932,1981,2069,2020,1742,1745173818035352068
9809932,1958,2091,2018,1734,1745173818035352068
9810932,1940,2117,2022,1732,1745173818035352068
9811932,1928,2148,2019,1734,1745173818035352068
9812932,1926,2159,2006,1753,1745173818035352068
9813932,1939,2154,1997,1787,1745173818035352068
9814932,1964,2153,1997,1849,1745173818035352068
9815932,1983,2173,2012,1939,1745173818035352068
9816932,1988,2217,2029,2029,1745173818035352068
9817932,1988,2267,2042,2116,1745173818035352068
9818932,1987,2302,2056,2177,1745173818035352068
9819932,1999,2297,2067,2210,1745173818035352068
9820933,2020,2264,2084,2209,1745173818035352068
9821933,2041,2224,2108,2178,1745173818035352068
9822933,2054,2185,2137,2126,1745173818035352068
9823933,2064,2147,2163,2062,1745173818035352068
9824933,2067,2116,2188,1985,1745173818035352068
9825933,2065,2098,2204,1904,1745173818035352068
9826933,2060,2078,2204,1815,1745173818035352068
9827933,2062,2048,2189,1747,1745173818035352068
9828933,2060,2003,2172,1741,1745173818035352068
9829933,2065,1973,2162,1786,1745173818035352068
9830933,2058,1954,2152,1883,1745173818035352068
9831935,2062,1951,2161,1984,1745173818035352068
9832934,2052,1926,2130,2032,1745173818035352068
9833934,2041,1923,2121,2082,1745173818035352068
9834934,2031,1970,2243,2173,1745173818035352068
9835934,2016,1993,2158,2213,1745173818035352068
9836934,1979,2074,2196,2285,1745173818035352068
9837934,1952,2165,2225,2338,1745173818035352068
9838934,1921,2240,2232,2381,1745173818035352068
9839934,1902,2290,2220,2429,1745173818035352068
9840934,1913,2292,2209,2392,1745173818035352068
9841934,1920,2232,2210,2329,1745173818035352068
9842934,1957,2154,2219,2235,1745173818035352068
9843934,1991,2066,2233,2136,1745173818035352068
9844935,2025,1963,2251,2035,1745173818035352068
9845935,2062,1869,2267,1970,1745173818035352068
9846935,2088,1813,2281,1954,1745173818035352068
9847935,2085,1842,2274,1999,1745173818035352068
9848935,2041,1961,2237,2086,1745173818035352068
9849935,1968,2123,2164,2197,1745173818035352068
9850935,1893,2276,2068,2277,1745173818035352068
9851935,1830,2378,1985,2318,1745173818035352068
9852935,1792,2413,1937,2322,1745173818035352068
9853935,1790,2404,1937,2319,1745173818035352068
9854935,1823,2358,1977,2304,1745173818035352068
9855935,1883,2288,2039,2288,1745173818035352068
9856936,1968,2196,2107,2252,1745173818035352068
9857936,2068,2091,2169,2201,1745173818035352068
9858936,2154,1993,2224,2169,1745173818035352068
9859936,2219,1931,2268,2115,1745173818035352068
9860936,2245,1898,2290,2061,1745173818035352068
9861936,2241,1882,2292,2020,1745173818035352068
9862936,2209,1884,2274,2000,1745173818035352068
9863936,2159,1905,2254,1988,1745173818093514557
9864936,2122,1907,2235,1980,1745173818093514557
9865936,2116,1877,2228,1968,1745173818093514557
9866936,2133,1826,2242,1962,1745173818093514557
9867936,2149,1786,2272,1972,1745173818093514557
9868938,2150,1794,2292,2000,1745173818093514557
9869937,2124,1878,2288,2053,1745173818093514557
9870937,2062,2009,2254,2109,1745173818093514557
9871937,1992,2140,2201,2141,1745173818093514557
9872937,1932,2233,2153,2137,1745173818093514557
9873937,1904,2266,2122,2105,1745173818093514557
9874937,1913,2237,2107,2061,1745173818093514557
9875937,1944,2168,2119,2030,1745173818093514557
9876937,1980,2121,2158,2035,1745173818093514557
9877937,2008,2113,2185,2069,1745173818093514557
9878937,1996,2129,2193,2127,1745173818093514557
9879937,1981,2165,2192,2169,1745173818093514557
9880938,1954,2189,2184,2186,1745173818093514557
9881938,1931,2201,2178,2197,1745173818093514557
9882938,1913,2190,2184,2220,1745173818093514557
9883938,1908,2154,2204,2257,1745173818093514557
9884938,1922,2091,2235,2275,1745173818093514557
9885938,1958,2007,2282,2261,1745173818093514557
9886938,2006,1909,2324,2210,1745173818093514557
9887940,2067,1812,2364,2162,1745173818093514557
9888938,2122,1712,2390,2125,1745173818093514557
9889938,2174,1645,2437,2108,1745173818093514557
9890939,2232,1691,2490,2083,1745173818093514557
9891938,2224,1632,2488,2072,1745173818093514557
9892939,2193,1712,2500,2091,1745173818093514557
9893939,2145,1824,2493,2104,1745173818093514557
9894939,2095,1925,2490,2102,1745173818093514557
9895939,2062,1987,2571,2163,1745173818093514557
9896939,2064,2004,2561,2123,1745173818093514557
9897939,2086,1992,2599,2098,1745173818093514557
9898939,2101,1950,2664,2143,1745173818093514557
9899939,2180,1934,2689,2075,1745173818093514557
9900939,2195,1932,2778,2059,1745173818093514557
9901939,2147,1906,2698,2032,1745173818093514557
9902939,2134,1902,2657,1954,1745173818093514557
9903939,2085,1941,2588,1890,1745173818093514557
9904940,2017,2022,2506,1849,1745173818093514557
9905940,1946,2112,2438,1846,1745173818093514557
9906940,1891,2204,2346,1890,1745173818093514557
9907940,1873,2347,2293,2000,1745173818093514557
9908940,1862,2317,2260,2153,1745173818093514557
9909940,1902,2334,2266,2213,1745173818093514557
9910940,1925,2290,2265,2315,1745173818093514557
9911940,1981,2240,2278,2388,1745173818093514557
9912940,2032,2188,2292,2438,1745173818093514557
9913940,2074,2148,2289,2460,1745173818093514557
9914940,2092,2124,2269,2456,1745173818093514557
9915940,2091,2129,2235,2429,1745173818093514557
9916941,2071,2145,2192,2408,1745173818093514557
9917941,2043,2158,2143,2389,1745173818093514557
9918941,2014,2148,2098,2366,1745173818093514557
9919941,2008,2122,2072,2328,1745173818093514557
9920941,2018,2078,2062,2274,1745173818093514557
9921941,2052,2024,2074,2205,1745173818159241353
9922941,2095,1975,2102,2138,1745173818159241353
9923941,2128,1943,2136,2092,1745173818159241353
9924941,2148,1942,2169,2071,1745173818159241353
9925941,2149,1974,2192,2096,1745173818159241353
9926941,2133,2011,2191,2142,1745173818159241353
9927941,2122,2024,2178,2158,1745173818159241353
9928942,2114,1980,2169,2136,1745173818159241353
9929942,2132,1887,2172,2087,1745173818159241353
9930942,2168,1780,2181,2045,1745173818159241353
9931942,2203,1690,2196,2038,1745173818159241353
9932942,2214,1637,2210,2092,1745173818159241353
9933942,2184,1669,2205,2197,1745173818159241353
9934942,2097,1812,2176,2341,1745173818159241353
9935942,1978,2016,2115,2477,1745173818159241353
9936942,1876,2190,2039,2554,1745173818159241353
9937942,1822,2282,1984,2547,1745173818159241353
9938942,1792,2270,1952,2488,1745173818159241353
9939942,1804,2190,1944,2399,1745173818159241353
9940943,1828,2086,1957,2328,1745173818159241353
9941943,1837,1971,1989,2326,1745173818159241353
9942943,1812,1858,2026,2392,1745173818159241353
9943943,1779,1753,2077,2478,1745173818159241353
9944943,1751,1645,2128,2532,1745173818159241353
9945943,1742,1535,2183,2547,1745173818159241353
9946944,1754,1436,2209,2481,1745173818159241353
9947943,1766,1340,2227,2400,1745173818159241353
9948945,1784,1272,2232,2305,1745173818159241353
9949943,1794,1209,2186,2200,1745173818159241353
9950945,1808,1174,2131,2133,1745173818159241353
9951943,1912,1161,2066,2106,1745173818159241353
9952944,1832,1139,1973,2094,1745173818159241353
9953944,1856,1145,1960,2091,1745173818159241353
9954944,1899,1156,1892,2056,1745173818159241353
9955944,1929,1180,1899,2012,1745173818159241353
9956944,1966,1259,1976,1947,1745173818159241353
9957944,1996,1265,1952,1808,1745173818159241353
9958944,2008,1323,1979,1699,1745173818159241353
9959944,2041,1401,2004,1594,1745173818159241353
9960944,2086,1489,2024,1506,1745173818159241353
9961944,2124,1582,2019,1422,1745173818159241353
9962944,2144,1692,1977,1357,1745173818159241353
9963944,2127,1808,1924,1320,1745173818159241353
9964945,2086,1931,1873,1329,1745173818159241353
9965945,2037,2054,1833,1382,1745173818159241353
9966945,1994,2156,1808,1460,1745173818159241353
9967945,1966,2217,1816,1535,1745173818159241353
9968945,1950,2244,1861,1611,1745173818159241353
9969945,1968,2259,1922,1698,1745173818159241353
9970945,2011,2268,1979,1806,1745173818159241353
9971945,2076,2275,2018,1928,1745173818159241353
9972945,2151,2285,2028,2037,1745173818159241353
9973945,2209,2310,2011,2097,1745173818159241353
9974945,2230,2348,1950,2081,1745173818159241353
9975945,2217,2394,1859,2021,1745173818159241353
9976946,2177,2451,1766,1945,1745173818159241353
9977946,2123,2502,1698,1884,1745173818159241353
9978946,2066,2549,1650,1848,1745173818159241353
9979946,2030,2586,1617,1789,1745173818244854321
9980946,1986,2574,1572,1748,1745173818244854321
9981946,1969,2530,1548,1753,1745173818244854321
9982946,1981,2428,1552,1788,1745173818244854321
9983946,2021,2290,1580,1829,1745173818244854321
9984946,2082,2140,1622,1870,1745173818244854321
9985946,2134,1998,1660,1922,1745173818244854321
9986946,2172,1887,1678,1974,1745173818244854321
9987946,2192,1812,1681,2035,1745173818244854321
9988947,2194,1762,1680,2117,1745173818244854321
9989947,2181,1720,1669,2202,1745173818244854321
9990947,2160,1681,1638,2278,1745173818244854321
9991947,2137,1636,1597,2353,1745173818244854321
9992947,2116,1579,1560,2415,1745173818244854321
9993947,2100,1517,1535,2453,1745173818244854321
9994947,2090,1453,1533,2469,1745173818244854321
9995947,2082,1397,1534,2490,1745173818244854321
9996947,2081,1354,1539,2511,1745173818244854321
9997947,2085,1331,1558,2512,1745173818244854321
9998947,2090,1331,1583,2506,1745173818244854321
9999947,2097,1346,1608,2493,1745173818244854321
10000948,2108,1366,1636,2468,1745173818244854321
10001948,2121,1396,1680,2446,1745173818244854321
10002948,2141,1441,1733,2428,1745173818244854321
10003948,2176,1499,1794,2401,1745173818244854321
10004948,2211,1535,1853,2352,1745173818244854321
10005948,2234,1555,1893,2295,1745173818244854321
10006948,2248,1584,1910,2253,1745173818244854321
10007948,2259,1637,1917,2196,1745173818244854321
10008948,2195,1623,1839,2169,1745173818244854321
10009949,2165,1745,1810,2194,1745173818244854321
10010950,2117,1889,1760,2225,1745173818244854321
10011949,2068,2037,1715,2262,1745173818244854321
10012949,2056,2169,1672,2268,1745173818244854321
10013949,2017,2261,1704,2251,1745173818244854321
10014949,2067,2269,1643,2155,1745173818244854321
10015949,1962,2201,1643,2089,1745173818244854321
10016949,1945,2160,1675,2060,1745173818244854321
10017949,1930,2160,1713,2067,1745173818244854321
10018949,1877,2233,1734,2117,1745173818244854321
10019949,1798,2374,1743,2205,1745173818244854321
10020949,1714,2543,1706,2244,1745173818244854321
10021949,1627,2629,1690,2248,1745173818244854321
10022949,1564,2690,1700,2207,1745173818244854321
10023949,1523,2700,1730,2136,1745173818244854321
10024950,1491,2667,1771,2053,1745173818244854321
10025950,1486,2608,1818,1974,1745173818244854321
10026950,1505,2556,1868,1915,1745173818244854321
10027950,1535,2487,1914,1887,1745173818244854321
10028950,1577,2395,1957,1877,1745173818244854321
10029950,1641,2297,2002,1882,1745173818244854321
10030950,1718,2201,2048,1914,1745173818244854321
10031950,1802,2126,2086,1966,1745173818244854321
10032950,1873,2085,2098,2030,1745173818244854321
10033950,1899,2088,2068,2084,1745173818244854321
10034950,1867,2123,1973,2102,1745173818244854321
10035950,1791,2169,1852,2094,1745173818244854321
10036951,1716,2195,1749,2082,1745173818244854321
10037951,1682,2194,1682,2052,1745173818265901316
10038951,1678,2158,1653,2012,1745173818265901316
10039951,1705,2092,1657,1963,1745173818265901316
10040951,1742,2004,1683,1887,1745173818265901316
10041951,1784,1924,1724,1803,1745173818265901316
10042951,1826,1859,1772,1740,1745173818265901316
10043951,1869,1834,1825,1725,1745173818265901316
10044951,1908,1867,1883,1768,1745173818265901316
10045951,1947,1937,1949,1842,1745173818265901316
10046951,1989,2004,2013,1912,1745173818265901316
10047951,2037,2066,2064,1952,1745173818265901316
10048952,2086,2115,2090,1938,1745173818265901316
10049952,2133,2154,2096,1884,1745173818265901316
10050952,2178,2194,2052,1812,1745173818265901316
10051952,2205,2232,1992,1763,1745173818265901316
10052952,2219,2264,1919,1749,1745173818265901316
10053952,2229,2291,1851,1769,1745173818265901316
10054952,2240,2332,1776,1808,1745173818265901316
10055952,2247,2396,1688,1851,1745173818265901316
10056952,2249,2496,1586,1886,1745173818265901316
10057952,2236,2625,1481,1899,1745173818265901316
10058952,2190,2757,1355,1873,1745173818265901316
10059952,2123,2832,1228,1810,1745173818265901316
10060953,2060,2848,1144,1736,1745173818265901316
10061953,2016,2824,1096,1672,1745173818265901316
10062953,1995,2776,1091,1634,1745173818265901316
10063953,2005,2694,1131,1630,1745173818265901316
10064953,2054,2577,1205,1662,1745173818265901316
10065953,2127,2439,1292,1696,1745173818265901316
10066953,2218,2287,1380,1709,1745173818265901316
10067953,2308,2166,1464,1716,1745173818265901316
10068955,2369,2125,1515,1725,1745173818265901316
10069954,2377,2204,1535,1752,1745173818265901316
10070953,2356,2412,1532,1770,1745173818265901316
10071953,2301,2612,1482,1765,1745173818265901316
10072955,2228,2835,1429,1758,1745173818265901316
10073954,2208,2843,1401,1753,1745173818265901316
10074954,2131,2910,1442,1686,1745173818265901316
10075954,2176,2704,1518,1543,1745173818265901316
10076954,2217,2628,1641,1516,1745173818265901316
10077954,2310,2519,1771,1514,1745173818265901316
10078954,2402,2498,1903,1566,1745173818265901316
10079954,2413,2532,1996,1712,1745173818265901316
10080954,2408,2603,2035,1906,1745173818265901316
10081954,2386,2693,2040,2090,1745173818265901316
10082954,2355,2735,2012,2202,1745173818265901316
10083954,2297,2729,2001,2245,1745173818265901316
10084955,2244,2710,1944,2172,1745173818265901316
10085955,2189,2682,1921,2050,1745173818265901316
10086955,2158,2640,1890,1910,1745173818265901316
10087955,2161,2588,1867,1793,1745173818265901316
10088955,2178,2541,1858,1754,1745173818265901316
10089955,2216,2491,1860,1791,1745173818265901316
10090955,2256,2554,1889,1877,1745173818265901316
10091955,2295,2510,1922,1996,1745173818265901316
10092955,2337,2559,1969,2123,1745173818265901316
10093955,2381,2612,2001,2186,1745173818265901316
10094955,2411,2646,2019,2155,1745173818265901316
10095955,2434,2674,2021,2060,1745173818341439167
10096956,2430,2728,2008,1974,1745173818341439167
10097956,2402,2807,1977,1933,1745173818341439167
10098956,2369,2891,1941,1907,1745173818341439167
10099956,2328,2945,1962,1985,1745173818341439167
10100956,2312,2970,1880,1882,1745173818341439167
10101956,2248,2899,1899,1890,1745173818341439167
10102956,2252,2848,1963,1918,1745173818341439167
10103956,2269,2812,2044,1980,1745173818341439167
10104956,2276,2802,2107,2067,1745173818341439167
10105956,2280,2873,2191,2196,1745173818341439167
10106956,2290,2835,2145,2180,1745173818341439167
10107956,2272,2820,2105,2162,1745173818341439167
10108957,2269,2805,2078,2128,1745173818341439167
10109957,2276,2779,2050,2078,1745173818341439167
10110957,2285,2733,2013,2001,1745173818341439167
10111957,2293,2661,1978,1885,1745173818341439167
10112957,2316,2557,1948,1723,1745173818341439167
10113957,2358,2426,1933,1542,1745173818341439167
10114957,2407,2303,1937,1397,1745173818341439167
10115957,2446,2210,1965,1306,1745173818341439167
10116957,2459,2178,2025,1323,1745173818341439167
10117957,2460,2220,2093,1460,1745173818341439167
10118957,2448,2304,2149,1648,1745173818341439167
10119957,2418,2413,2193,1825,1745173818341439167
10120958,2368,2525,2225,1936,1745173818341439167
10121958,2324,2622,2236,1929,1745173818341439167
10122958,2259,2690,2228,1833,1745173818341439167
10123958,2212,2749,2221,1766,1745173818341439167
10124958,2229,2777,2179,1646,1745173818341439167
10125958,2161,2756,2144,1626,1745173818341439167
10126958,2169,2749,2113,1644,1745173818341439167
10127958,2182,2737,2077,1705,1745173818341439167
10128958,2195,2732,2051,1734,1745173818341439167
10129958,2186,2708,2042,1784,1745173818341439167
10130958,2203,2696,2051,1838,1745173818341439167
10131958,2224,2690,2056,1872,1745173818341439167
10132959,2233,2682,2060,1870,1745173818341439167
10133959,2242,2655,2061,1853,1745173818341439167
10134959,2258,2616,2052,1844,1745173818341439167
10135959,2270,2568,2034,1851,1745173818341439167
10136959,2262,2542,2017,1874,1745173818341439167
10137959,2236,2559,2001,1915,1745173818341439167
10138959,2165,2590,1996,1989,1745173818341439167
10139959,2112,2582,2011,2051,1745173818341439167
10140959,2084,2545,2043,2068,1745173818341439167
10141959,2072,2499,2088,2048,1745173818341439167
10142959,2075,2448,2139,2012,1745173818341439167
10143959,2094,2387,2197,1969,1745173818341439167
10144960,2137,2306,2262,1925,1745173818341439167
10145960,2196,2213,2329,1915,1745173818341439167
10146960,2261,2145,2398,1954,1745173818341439167
10147960,2324,2126,2454,2033,1745173818341439167
10148960,2337,2162,2463,2124,1745173818341439167
10149960,2309,2236,2411,2191,1745173818341439167
10150960,2240,2312,2316,2208,1745173818341439167
10151960,2150,2337,2192,2178,1745173818341439167
10152960,2070,2309,2070,2121,1745173818341439167
10153960,2017,2245,1992,2052,1745173818391055850
10154960,2009,2141,1980,1982,1745173818391055850
10155960,2038,2028,2008,1939,1745173818391055850
10156961,2074,1947,2048,1948,1745173818391055850
10157961,2095,1885,2073,1964,1745173818391055850
10158961,2088,1845,2086,1986,1745173818391055850
10159961,2059,1848,2092,2053,1745173818391055850
10160961,2010,1874,2097,2137,1745173818391055850
10161961,1958,1900,2110,2204,1745173818391055850
10162961,1908,1945,2124,2249,1745173818391055850
10163961,1864,2016,2132,2287,1745173818391055850
10164962,1841,2067,2121,2308,1745173818391055850
10165961,1844,2061,2106,2296,1745173818391055850
10166961,1888,1981,2104,2259,1745173818391055850
10167961,1966,1848,2139,2242,1745173818391055850
10168962,2065,1706,2211,2260,1745173818391055850
10169962,2160,1594,2297,2322,1745173818391055850
10170962,2227,1544,2371,2432,1745173818391055850
10171962,2243,1570,2413,2559,1745173818391055850
10172962,2211,1668,2404,2681,1745173818391055850
10173962,2145,1811,2346,2762,1745173818391055850
10174962,2073,1945,2289,2788,1745173818391055850
10175962,2022,2025,2242,2745,1745173818391055850
10176962,1986,2051,2190,2655,1745173818391055850
10177962,1946,2018,2130,2564,1745173818391055850
10178962,1908,1972,2083,2517,1745173818391055850
10179962,1867,1932,2014,2438,1745173818391055850
10180963,1842,1899,1973,2337,1745173818391055850
10181963,1837,1843,1937,2201,1745173818391055850
10182963,1852,1758,1937,2068,1745173818391055850
10183963,1887,1668,1999,1976,1745173818391055850
10184963,1897,1588,2037,1901,1745173818391055850
10185963,1922,1601,2110,1961,1745173818391055850
10186963,1960,1664,2174,2073,1745173818391055850
10187963,2014,1750,2235,2152,1745173818391055850
10188963,2053,1810,2259,2189,1745173818391055850
10189963,2109,1829,2240,2091,1745173818391055850
10190964,2131,1732,2232,1934,1745173818391055850
10191963,2176,1586,2223,1777,1745173818391055850
10192966,2212,1450,2226,1664,1745173818391055850
10193964,2226,1376,2264,1655,1745173818391055850
10194964,2181,1438,2251,1768,1745173818391055850
10195964,2082,1642,2211,1971,1745173818391055850
10196964,1974,1921,2234,2203,1745173818391055850
10197964,1858,2168,2038,2331,1745173818391055850
10198964,1760,2354,1976,2408,1745173818391055850
10199964,1701,2467,1953,2413,1745173818391055850
10200964,1670,2515,1968,2360,1745173818391055850
10201964,1671,2516,2019,2280,1745173818391055850
10202964,1708,2485,2092,2154,1745173818391055850
10203964,1749,2418,2163,2023,1745173818391055850
10204965,1815,2350,2251,1913,1745173818391055850
10205965,1888,2276,2327,1825,1745173818391055850
10206965,1950,2196,2373,1776,1745173818391055850
10207965,1999,2109,2377,1780,1745173818391055850
10208965,2017,2057,2340,1845,1745173818391055850
10209965,1997,2078,2277,1958,1745173818391055850
10210965,1956,2134,2205,2058,1745173818391055850
10211965,1933,2162,2149,2094,1745173818445891026
10212965,1941,2110,2138,2085,1745173818445891026
10213965,1992,1990,2170,2034,1745173818445891026
10214965,2071,1867,2232,1977,1745173818445891026
10215965,2140,1796,2299,1957,1745173818445891026
10216966,2173,1789,2336,1966,1745173818445891026
10217966,2160,1818,2328,1954,1745173818445891026
10218966,2093,1859,2280,1936,1745173818445891026
10219966,2008,1892,2206,1929,1745173818445891026
10220966,1931,1925,2126,1934,1745173818445891026
10221966,1857,1977,2057,1974,1745173818445891026
10222966,1798,2040,2005,2040,1745173818445891026
10223966,1774,2085,1995,2105,1745173818445891026
10224966,1787,2084,2017,2146,1745173818445891026
10225966,1836,2009,2060,2165,1745173818445891026
10226966,1904,1891,2096,2176,1745173818445891026
10227966,1978,1788,2106,2184,1745173818445891026
10228967,2025,1740,2088,2184,1745173818445891026
10229967,2035,1760,2050,2195,1745173818445891026
10230967,2012,1816,2013,2202,1745173818445891026
10231967,1986,1850,2016,2196,1745173818445891026
10232967,1989,1842,2061,2173,1745173818445891026
10233967,2034,1813,2121,2144,1745173818445891026
10234967,2089,1790,2165,2121,1745173818445891026
10235967,2133,1773,2157,2077,1745173818445891026
10236967,2154,1741,2083,2001,1745173818445891026
10237967,2152,1667,1977,1913,1745173818445891026
10238967,2138,1560,1897,1820,1745173818445891026
10239967,2131,1473,1865,1774,1745173818445891026
10240968,2110,1434,1876,1808,1745173818445891026
10241968,2073,1474,1915,1895,1745173818445891026
10242968,2034,1547,1969,1977,1745173818445891026
10243968,2022,1628,2024,2036,1745173818445891026
10244968,2020,1686,2065,2086,1745173818445891026
10245968,2052,1725,2105,2142,1745173818445891026
10246968,2214,1735,2125,2139,1745173818445891026
10247968,2179,1664,2151,2106,1745173818445891026
10248968,2240,1581,2187,2064,1745173818445891026
10249968,2300,1508,2222,2041,1745173818445891026
10250968,2348,1450,2251,2049,1745173818445891026
10251968,2378,1462,2245,2094,1745173818445891026
10252969,2372,1529,2153,2100,1745173818445891026
10253969,2294,1611,2034,2109,1745173818445891026
10254969,2213,1686,1940,2106,1745173818445891026
10255969,2132,1739,1886,2118,1745173818445891026
10256969,2072,1776,1879,2126,1745173818445891026
10257969,2044,1775,1913,2105,1745173818445891026
10258969,2042,1721,1971,2060,1745173818445891026
10259969,2073,1635,2043,2013,1745173818445891026
10260969,2105,1531,2123,1969,1745173818445891026
10261969,2129,1422,2183,1929,1745173818445891026
10262969,2126,1346,2202,1932,1745173818445891026
10263969,2112,1331,2195,1989,1745173818445891026
10264970,2096,1380,2190,2055,1745173818445891026
10265970,2067,1498,2190,2121,1745173818445891026
10266970,2019,1643,2168,2207,1745173818445891026
10267970,1964,1801,2122,2281,1745173818445891026
10268970,1899,1934,2080,2326,1745173818445891026
10269970,1867,2016,2039,2314,1745173818516590692
10270970,1869,2020,2009,2258,1745173818516590692
10271970,1910,1955,1995,2167,1745173818516590692
10272970,1961,1836,1982,2067,1745173818516590692
10273970,2014,1713,1979,1989,1745173818516590692
10274970,2040,1622,1984,1952,1745173818516590692
10275970,2028,1566,1977,1946,1745173818516590692
10276971,1980,1550,1961,1957,1745173818516590692
10277971,1914,1549,1948,1988,1745173818516590692
10278971,1840,1572,1955,2030,1745173818516590692
10279971,1768,1645,1976,2067,1745173818516590692
10280971,1701,1745,2003,2084,1745173818516590692
10281971,1651,1829,2020,2081,1745173818516590692
10282971,1620,1894,2029,2074,1745173818516590692
10283971,1599,1921,2040,2090,1745173818516590692
10284971,1594,1936,2052,2120,1745173818516590692
10285971,1610,1937,2068,2149,1745173818516590692
10286971,1645,1910,2100,2179,1745173818516590692
10287971,1688,1844,2130,2181,1745173818516590692
10288972,1724,1774,2169,2192,1745173818516590692
10289972,1744,1722,2184,2216,1745173818516590692
10290972,1743,1710,2174,2255,1745173818516590692
10291972,1733,1746,2160,2300,1745173818516590692
10292972,1724,1814,2145,2350,1745173818516590692
10293972,1721,1880,2131,2373,1745173818516590692
10294972,1719,1929,2115,2334,1745173818516590692
10295972,1723,1957,2093,2254,1745173818516590692
10296972,1740,1997,2083,2176,1745173818516590692
10297973,1763,2042,2060,2118,1745173818516590692
10298972,1773,2109,2051,2126,1745173818516590692
10299972,1785,2206,2102,2176,1745173818516590692
10300973,1772,2350,2019,2328,1745173818516590692
10301973,1768,2271,1962,2278,1745173818516590692
10302973,1750,2213,1944,2306,1745173818516590692
10303973,1780,2145,1949,2290,1745173818516590692
10304973,1825,2048,1962,2232,1745173818516590692
10305973,1896,1946,1989,2163,1745173818516590692
10306973,2037,1917,2093,2164,1745173818516590692
10307973,2113,1850,2104,2075,1745173818516590692
10308973,2115,1845,2076,2048,1745173818516590692
10309973,2113,1864,2074,2051,1745173818516590692
10310973,2090,1897,2056,2067,1745173818516590692
10311973,2050,1944,2017,2098,1745173818516590692
10312974,1998,2019,1966,2145,1745173818516590692
10313974,1952,2112,1921,2195,1745173818516590692
10314974,1912,2172,1896,2205,1745173818516590692
10315974,1894,2165,1891,2148,1745173818516590692
10316974,1900,2110,1900,2037,1745173818516590692
10317974,1931,2059,1948,1926,1745173818516590692
10318974,1965,2057,2043,1852,1745173818516590692
10319974,2013,2125,2158,1848,1745173818516590692
10320974,2069,2213,2235,1899,1745173818516590692
10321974,2117,2230,2276,1937,1745173818516590692
10322974,2154,2181,2265,1949,1745173818516590692
10323974,2144,2124,2176,1975,1745173818516590692
10324975,2065,2109,2037,2017,1745173818516590692
