timestamp,emg0,emg1,emg2,emg3,pkt_time_ns
9124931,2512,2323,1888,1969,1745186944464415035
9125928,2496,2325,1911,1956,1745186944464415035
9126928,2474,2299,1924,1960,1745186944464415035
9127928,2443,2261,1933,1978,1745186944464415035
9128928,2405,2224,1934,2001,1745186944464415035
9129929,2366,2189,1925,2028,1745186944464415035
9130929,2329,2153,1913,2059,1745186944464415035
9131929,2295,2102,1906,2086,1745186944464415035
9132929,2265,2022,1908,2105,1745186944464415035
9133929,2240,1933,1915,2120,1745186944464415035
9134929,2222,1857,1915,2131,1745186944464415035
9135929,2212,1821,1900,2142,1745186944464415035
9136929,2213,1835,1866,2145,1745186944464415035
9137929,2225,1900,1824,2140,1745186944464415035
9138929,2246,1982,1798,2121,1745186944464415035
9139929,2272,2067,1800,2088,1745186944464415035
9140929,2296,2157,1829,2037,1745186944464415035
9141930,2315,2251,1872,1984,1745186944464415035
9142930,2329,2330,1914,1933,1745186944464415035
9143930,2331,2379,1942,1899,1745186944464415035
9144930,2326,2395,1964,1885,1745186944464415035
9145930,2310,2380,1990,1894,1745186944464415035
9146930,2288,2333,2020,1916,1745186944464415035
9147930,2257,2259,2038,1954,1745186944464415035
9148930,2229,2171,2048,1998,1745186944464415035
9149930,2202,2093,2040,2042,1745186944464415035
9150930,2182,2034,2029,2082,1745186944464415035
9151930,2168,1997,2020,2110,1745186944464415035
9152930,2163,1962,2021,2132,1745186944464415035
9153931,2164,1917,2028,2156,1745186944464415035
9154931,2171,1878,2033,2178,1745186944464415035
9155931,2184,1857,2025,2198,1745186944464415035
9156931,2200,1852,2003,2204,1745186944464415035
9157931,2221,1857,1978,2195,1745186944464415035
9158931,2249,1884,1947,2170,1745186944464415035
9159931,2282,1932,1926,2130,1745186944464415035
9160931,2317,2002,1909,2083,1745186944464415035
9161931,2352,2086,1909,2029,1745186944464415035
9162931,2380,2174,1915,1974,1745186944464415035
9163931,2400,2263,1923,1926,1745186944464415035
9164931,2408,2355,1939,1895,1745186944464415035
9165932,2403,2450,1949,1884,1745186944464415035
9166932,2384,2532,1958,1889,1745186944464415035
9167932,2351,2571,1969,1910,1745186944464415035
9168932,2307,2564,1980,1941,1745186944464415035
9169932,2260,2506,1992,1984,1745186944464415035
9170932,2211,2395,1997,2034,1745186944464415035
9171932,2164,2270,1998,2085,1745186944464415035
9172932,2129,2141,2000,2130,1745186944464415035
9173932,2104,2023,1998,2174,1745186944464415035
9174932,2091,1925,1996,2204,1745186944464415035
9175932,2089,1860,1988,2219,1745186944464415035
9176932,2100,1836,1981,2217,1745186944464415035
9177933,2126,1854,1974,2194,1745186944464415035
9178933,2166,1920,1972,2150,1745186944464415035
9179933,2216,2026,1966,2097,1745186944464415035
9180933,2268,2161,1966,2029,1745186944464415035
9181933,2317,2294,1971,1965,1745186944464415035
9182933,2360,2416,1982,1902,1745186944517707465
9183933,2386,2517,1988,1853,1745186944517707465
9184933,2405,2584,1982,1820,1745186944517707465
9185933,2401,2621,1971,1806,1745186944517707465
9186933,2380,2619,1960,1804,1745186944517707465
9187933,2344,2581,1946,1806,1745186944517707465
9188933,2300,2524,1938,1814,1745186944517707465
9189934,2253,2446,1939,1819,1745186944517707465
9190934,2210,2374,1949,1814,1745186944517707465
9191934,2172,2324,1969,1802,1745186944517707465
9192934,2148,2291,1985,1782,1745186944517707465
9193934,2136,2260,2000,1764,1745186944517707465
9194934,2131,2220,2005,1749,1745186944517707465
9195934,2131,2172,2006,1745,1745186944517707465
9196934,2131,2125,2011,1741,1745186944517707465
9197935,2145,2091,2015,1750,1745186944517707465
9198934,2161,2098,2025,1749,1745186944517707465
9199934,2169,2147,2048,1742,1745186944517707465
9200934,2186,2248,2048,1735,1745186944517707465
9201935,2200,2384,2052,1736,1745186944517707465
9202935,2252,2582,2086,1763,1745186944517707465
9203935,2258,2688,2013,1695,1745186944517707465
9204935,2180,2685,2000,1683,1745186944517707465
9205935,2170,2710,2001,1667,1745186944517707465
9206935,2141,2694,2004,1656,1745186944517707465
9207935,2105,2645,2024,1658,1745186944517707465
9208935,2061,2578,2028,1684,1745186944517707465
9209935,2027,2515,2041,1717,1745186944517707465
9210935,1992,2432,2049,1756,1745186944517707465
9211935,1960,2342,2049,1797,1745186944517707465
9212935,1933,2258,2053,1840,1745186944517707465
9213936,1914,2189,2056,1877,1745186944517707465
9214936,1902,2144,2056,1892,1745186944517707465
9215936,1898,2120,2050,1887,1745186944517707465
9216936,1902,2127,2042,1866,1745186944517707465
9217936,1912,2180,2029,1830,1745186944517707465
9218936,1930,2267,2019,1785,1745186944517707465
9219936,1952,2365,2013,1736,1745186944517707465
9220936,1976,2457,2011,1685,1745186944517707465
9221936,1998,2531,2011,1644,1745186944517707465
9222936,2008,2580,2017,1618,1745186944517707465
9223936,2006,2640,2027,1602,1745186944517707465
9224936,1993,2702,2038,1597,1745186944517707465
9225937,1968,2756,2059,1597,1745186944517707465
9226937,1933,2779,2076,1600,1745186944517707465
9227937,1893,2763,2091,1601,1745186944517707465
9228937,1850,2710,2105,1613,1745186944517707465
9229937,1809,2632,2121,1637,1745186944517707465
9230937,1768,2547,2128,1674,1745186944517707465
9231937,1731,2460,2139,1708,1745186944517707465
9232937,1692,2386,2141,1739,1745186944517707465
9233937,1667,2320,2146,1765,1745186944517707465
9234937,1644,2270,2143,1777,1745186944517707465
9235937,1629,2240,2141,1780,1745186944517707465
9236937,1621,2244,2143,1776,1745186944517707465
9237938,1623,2286,2144,1753,1745186944517707465
9238938,1638,2374,2144,1710,1745186944517707465
9239938,1668,2510,2142,1650,1745186944517707465
9240938,1709,2678,2131,1563,1745186944576257503
9241938,1754,2886,2141,1478,1745186944576257503
9242938,1797,3118,2151,1369,1745186944576257503
9243938,1835,3368,2156,1244,1745186944576257503
9244938,1860,3565,2154,1112,1745186944576257503
9245938,1874,3701,2144,979,1745186944576257503
9246938,1868,3808,2132,849,1745186944576257503
9247938,1845,3885,2132,723,1745186944576257503
9248938,1808,3940,2150,604,1745186944576257503
9249939,1758,3978,2193,496,1745186944576257503
9250939,1701,4006,2249,396,1745186944576257503
9251939,1632,4028,2310,317,1745186944576257503
9252939,1563,4043,2365,254,1745186944576257503
9253939,1493,4051,2416,208,1745186944576257503
9254939,1405,4060,2452,169,1745186944576257503
9255939,1314,4064,2487,136,1745186944576257503
9256939,1250,4095,2563,115,1745186944576257503
9257939,1133,4038,2515,100,1745186944576257503
9258939,1001,4045,2541,82,1745186944576257503
9259939,902,4058,2557,70,1745186944576257503
9260939,804,4066,2573,61,1745186944576257503
9261940,709,4070,2597,54,1745186944576257503
9262940,617,4074,2625,49,1745186944576257503
9263940,522,4074,2653,36,1745186944576257503
9264940,435,4064,2672,37,1745186944576257503
9265940,345,4077,2710,35,1745186944576257503
9266940,276,4078,2717,33,1745186944576257503
9267940,223,4080,2714,33,1745186944576257503
9268940,182,4081,2708,30,1745186944576257503
9269940,148,4081,2712,29,1745186944576257503
9270940,123,4081,2732,27,1745186944576257503
9271940,102,4081,2782,29,1745186944576257503
9272940,85,4080,2849,26,1745186944576257503
9273941,74,4081,2914,27,1745186944576257503
9274941,62,4080,2958,26,1745186944576257503
9275941,56,4079,2973,25,1745186944576257503
9276941,49,4081,2958,27,1745186944576257503
9277941,44,4080,2929,24,1745186944576257503
9278941,40,4081,2902,27,1745186944576257503
9279941,36,4082,2886,24,1745186944576257503
9280941,35,4080,2878,30,1745186944576257503
9281941,32,4082,2888,45,1745186944576257503
9282941,31,4080,2899,65,1745186944576257503
9283941,28,4080,2917,83,1745186944576257503
9284941,28,4081,2946,98,1745186944576257503
9285942,26,4081,2988,112,1745186944576257503
9286942,27,4081,3035,126,1745186944576257503
9287942,26,4081,3083,144,1745186944576257503
9288942,25,4081,3117,174,1745186944576257503
9289942,24,4082,3133,212,1745186944576257503
9290942,24,4080,3134,258,1745186944576257503
9291942,25,4057,3129,314,1745186944576257503
9292942,25,3972,3127,369,1745186944576257503
9293942,24,3846,3125,419,1745186944576257503
9294942,23,3707,3126,466,1745186944576257503
9295942,24,3582,3122,511,1745186944576257503
9296942,22,3452,3125,550,1745186944576257503
9297943,22,3337,3130,604,1745186944576257503
9298943,24,3231,3139,650,1745186944636477421
9299943,22,3149,3155,696,1745186944636477421
9300943,22,3094,3165,738,1745186944636477421
9301943,22,3060,3173,776,1745186944636477421
9302943,21,3036,3173,811,1745186944636477421
9303943,21,3010,3161,844,1745186944636477421
9304943,22,2981,3150,877,1745186944636477421
9305943,21,2945,3126,908,1745186944636477421
9306943,22,2899,3104,938,1745186944636477421
9307943,21,2852,3086,972,1745186944636477421
9308943,22,2797,3069,1008,1745186944636477421
9309944,20,2738,3054,1046,1745186944636477421
9310944,21,2680,3028,1089,1745186944636477421
9311944,20,2626,2997,1134,1745186944636477421
9312944,20,2566,2975,1187,1745186944636477421
9313944,23,2507,2957,1242,1745186944636477421
9314944,20,2476,3009,1323,1745186944636477421
9315944,17,2404,2988,1344,1745186944636477421
9316944,22,2288,2912,1396,1745186944636477421
9317944,21,2256,2898,1453,1745186944636477421
9318944,21,2216,2888,1500,1745186944636477421
9319944,21,2169,2913,1528,1745186944636477421
9320944,21,2116,2872,1563,1745186944636477421
9321945,20,2061,2870,1594,1745186944636477421
9322945,21,2006,2865,1622,1745186944636477421
9323945,22,1978,2864,1645,1745186944636477421
9324945,21,1988,2866,1667,1745186944636477421
9325945,21,2021,2869,1690,1745186944636477421
9326945,21,2042,2866,1710,1745186944636477421
9327945,21,2037,2846,1732,1745186944636477421
9328945,22,2010,2819,1753,1745186944636477421
9329945,21,1969,2781,1770,1745186944636477421
9330945,21,1929,2744,1781,1745186944636477421
9331945,20,1882,2725,1794,1745186944636477421
9332945,21,1825,2723,1803,1745186944636477421
9333946,22,1762,2747,1819,1745186944636477421
9334946,21,1699,2772,1850,1745186944636477421
9335946,21,1635,2783,1887,1745186944636477421
9336946,21,1578,2776,1929,1745186944636477421
9337946,21,1535,2754,1974,1745186944636477421
9338946,20,1506,2733,2017,1745186944636477421
9339946,22,1475,2709,2059,1745186944636477421
9340946,21,1455,2690,2086,1745186944636477421
9341946,22,1448,2666,2114,1745186944636477421
9342946,21,1444,2652,2132,1745186944636477421
9343946,22,1443,2641,2152,1745186944636477421
9344946,21,1440,2635,2171,1745186944636477421
9345947,22,1440,2630,2193,1745186944636477421
9346947,20,1430,2620,2222,1745186944636477421
9347947,21,1417,2606,2249,1745186944636477421
9348947,22,1409,2581,2277,1745186944636477421
9349947,25,1404,2558,2304,1745186944636477421
9350947,44,1396,2532,2331,1745186944636477421
9351947,76,1380,2507,2359,1745186944636477421
9352947,114,1348,2481,2388,1745186944636477421
9353947,156,1297,2459,2421,1745186944636477421
9354947,197,1233,2444,2456,1745186944636477421
9355947,238,1160,2429,2484,1745186944636477421
9356947,282,1084,2425,2513,1745186944692988936
9357948,330,1008,2427,2539,1745186944692988936
9358948,381,936,2442,2559,1745186944692988936
9359948,435,878,2450,2580,1745186944692988936
9360948,494,841,2452,2609,1745186944692988936
9361948,548,829,2438,2637,1745186944692988936
9362948,611,834,2416,2668,1745186944692988936
9363948,676,841,2397,2698,1745186944692988936
9364948,739,846,2389,2719,1745186944692988936
9365948,800,856,2384,2739,1745186944692988936
9366948,860,878,2383,2752,1745186944692988936
9367948,915,904,2385,2758,1745186944692988936
9368948,967,922,2386,2756,1745186944692988936
9369949,1013,925,2376,2762,1745186944692988936
9370949,1057,919,2346,2756,1745186944692988936
9371949,1096,883,2326,2778,1745186944692988936
9372949,1142,840,2311,2792,1745186944692988936
9373949,1180,785,2309,2813,1745186944692988936
9374949,1226,729,2333,2904,1745186944692988936
9375949,1277,672,2285,2887,1745186944692988936
9376949,1288,580,2180,2892,1745186944692988936
9377949,1330,525,2146,2919,1745186944692988936
9378949,1379,494,2122,2946,1745186944692988936
9379949,1432,480,2120,2956,1745186944692988936
9380949,1489,484,2152,2955,1745186944692988936
9381950,1536,510,2119,2944,1745186944692988936
9382950,1606,547,2106,2929,1745186944692988936
9383950,1672,607,2098,2910,1745186944692988936
9384950,1733,665,2097,2894,1745186944692988936
9385950,1791,707,2099,2875,1745186944692988936
9386950,1843,732,2118,2858,1745186944692988936
9387950,1889,741,2137,2848,1745186944692988936
9388950,1929,747,2139,2844,1745186944692988936
9389950,1966,762,2126,2851,1745186944692988936
9390950,2004,792,2097,2865,1745186944692988936
9391950,2037,820,2066,2888,1745186944692988936
9392950,2072,823,2037,2914,1745186944692988936
9393951,2101,794,2011,2944,1745186944692988936
9394951,2124,746,1998,2971,1745186944692988936
9395951,2146,689,1985,2995,1745186944692988936
9396951,2170,634,1971,3014,1745186944692988936
9397951,2198,585,1955,3033,1745186944692988936
9398951,2227,548,1938,3038,1745186944692988936
9399951,2262,530,1925,3037,1745186944692988936
9400951,2304,534,1925,3033,1745186944692988936
9401951,2345,556,1931,3018,1745186944692988936
9402951,2396,592,1938,3003,1745186944692988936
9403953,2432,637,1940,2982,1745186944692988936
9404951,2475,689,1934,2968,1745186944692988936
9405952,2517,747,1925,2958,1745186944692988936
9406953,2547,805,1913,2957,1745186944692988936
9407952,2570,856,1893,2965,1745186944692988936
9408952,2593,894,1862,2976,1745186944692988936
9409952,2617,920,1830,2986,1745186944692988936
9410952,2635,926,1801,2991,1745186944692988936
9411952,2656,912,1779,2990,1745186944692988936
9412952,2673,878,1765,2984,1745186944692988936
9413952,2688,834,1753,2987,1745186944692988936
9414952,2699,787,1752,3006,1745186944753174532
9415952,2708,741,1752,3027,1745186944753174532
9416952,2720,700,1755,3054,1745186944753174532
9417953,2737,671,1771,3074,1745186944753174532
9418953,2750,660,1804,3086,1745186944753174532
9419953,2774,673,1845,3084,1745186944753174532
9420953,2801,707,1889,3072,1745186944753174532
9421953,2829,752,1917,3051,1745186944753174532
9422953,2866,801,1929,3030,1745186944753174532
9423953,2901,843,1920,3018,1745186944753174532
9424953,2941,878,1894,3016,1745186944753174532
9425953,2973,902,1861,3018,1745186944753174532
9426953,3000,921,1828,3017,1745186944753174532
9427953,3029,929,1795,3014,1745186944753174532
9428954,3043,929,1766,3003,1745186944753174532
9429954,3058,921,1741,2989,1745186944753174532
9430954,3069,918,1710,2964,1745186944753174532
9431954,3123,925,1707,2997,1745186944753174532
9432954,3146,899,1632,2877,1745186944753174532
9433954,3060,881,1612,2880,1745186944753174532
9434954,3082,897,1613,2872,1745186944753174532
9435954,3083,907,1624,2872,1745186944753174532
9436954,3096,906,1633,2870,1745186944753174532
9437954,3105,904,1632,2872,1745186944753174532
9438954,3118,910,1641,2866,1745186944753174532
9439954,3147,915,1626,2873,1745186944753174532
9440954,3179,910,1616,2861,1745186944753174532
9441955,3205,905,1601,2843,1745186944753174532
9442955,3238,910,1602,2824,1745186944753174532
9443955,3264,933,1614,2801,1745186944753174532
9444955,3285,979,1632,2786,1745186944753174532
9445955,3306,1041,1652,2776,1745186944753174532
9446955,3323,1099,1672,2768,1745186944753174532
9447955,3339,1136,1686,2764,1745186944753174532
9448955,3342,1156,1694,2762,1745186944753174532
9449955,3346,1165,1691,2764,1745186944753174532
9450955,3347,1168,1683,2764,1745186944753174532
9451955,3348,1171,1682,2771,1745186944753174532
9452955,3347,1165,1683,2782,1745186944753174532
9453956,3345,1142,1678,2792,1745186944753174532
9454956,3339,1101,1676,2798,1745186944753174532
9455956,3337,1048,1668,2810,1745186944753174532
9456956,3336,996,1654,2817,1745186944753174532
9457956,3339,953,1636,2826,1745186944753174532
9458956,3342,929,1615,2833,1745186944753174532
9459956,3356,930,1581,2822,1745186944753174532
9460956,3377,958,1554,2806,1745186944753174532
9461956,3401,1004,1530,2779,1745186944753174532
9462956,3425,1059,1502,2754,1745186944753174532
9463956,3451,1118,1477,2724,1745186944753174532
9464956,3469,1185,1472,2699,1745186944753174532
9465957,3484,1248,1491,2676,1745186944753174532
9466959,3496,1299,1534,2649,1745186944753174532
9467957,3501,1344,1573,2629,1745186944753174532
9468957,3497,1378,1604,2619,1745186944753174532
9469957,3492,1403,1623,2630,1745186944753174532
9470957,3489,1414,1630,2649,1745186944753174532
9471957,3482,1417,1628,2683,1745186944753174532
9472957,3476,1405,1625,2717,1745186944825639131
9473957,3467,1385,1632,2756,1745186944825639131
9474957,3457,1355,1642,2776,1745186944825639131
9475957,3443,1321,1641,2778,1745186944825639131
9476957,3434,1290,1629,2770,1745186944825639131
9477958,3434,1265,1608,2750,1745186944825639131
9478958,3434,1256,1582,2730,1745186944825639131
9479958,3442,1263,1562,2707,1745186944825639131
9480958,3453,1293,1555,2677,1745186944825639131
9481958,3469,1340,1568,2654,1745186944825639131
9482958,3488,1399,1578,2620,1745186944825639131
9483958,3503,1461,1597,2586,1745186944825639131
9484958,3516,1520,1610,2556,1745186944825639131
9485958,3523,1562,1630,2521,1745186944825639131
9486958,3528,1612,1636,2492,1745186944825639131
9487958,3529,1650,1641,2481,1745186944825639131
9488958,3519,1681,1636,2476,1745186944825639131
9489959,3509,1698,1660,2534,1745186944825639131
9490959,3488,1686,1621,2498,1745186944825639131
9491959,3481,1679,1658,2574,1745186944825639131
9492959,3553,1669,1642,2523,1745186944825639131
9493959,3431,1618,1643,2580,1745186944825639131
9494959,3487,1545,1601,2506,1745186944825639131
9495959,3371,1540,1627,2525,1745186944825639131
9496959,3364,1547,1643,2529,1745186944825639131
9497959,3349,1537,1634,2530,1745186944825639131
9498959,3360,1528,1626,2516,1745186944825639131
9499959,3366,1509,1617,2493,1745186944825639131
9500959,3379,1509,1604,2461,1745186944825639131
9501960,3398,1527,1593,2441,1745186944825639131
9502960,3413,1550,1584,2432,1745186944825639131
9503960,3429,1597,1572,2432,1745186944825639131
9504960,3440,1644,1548,2438,1745186944825639131
9505960,3445,1689,1535,2438,1745186944825639131
9506960,3445,1728,1521,2440,1745186944825639131
9507960,3443,1757,1514,2436,1745186944825639131
9508960,3432,1779,1520,2420,1745186944825639131
9509960,3413,1797,1545,2394,1745186944825639131
9510960,3397,1810,1584,2358,1745186944825639131
9511960,3377,1817,1620,2326,1745186944825639131
9512960,3356,1814,1658,2292,1745186944825639131
9513961,3338,1797,1690,2283,1745186944825639131
9514961,3316,1768,1721,2297,1745186944825639131
9515961,3299,1728,1741,2322,1745186944825639131
9516961,3282,1688,1760,2355,1745186944825639131
9517961,3279,1656,1772,2393,1745186944825639131
9518961,3268,1640,1773,2425,1745186944825639131
9519961,3268,1646,1777,2444,1745186944825639131
9520961,3274,1680,1785,2445,1745186944825639131
9521961,3284,1729,1778,2437,1745186944825639131
9522961,3295,1785,1753,2418,1745186944825639131
9523961,3309,1833,1716,2384,1745186944825639131
9524961,3315,1870,1677,2330,1745186944825639131
9525962,3317,1901,1640,2277,1745186944825639131
9526962,3313,1928,1618,2223,1745186944825639131
9527962,3306,1950,1620,2172,1745186944825639131
9528962,3288,1963,1632,2128,1745186944825639131
9529962,3271,1972,1635,2093,1745186944825639131
9530962,3253,1981,1633,2072,1745186944872707034
9531962,3235,1985,1635,2061,1745186944872707034
9532962,3213,1973,1646,2056,1745186944872707034
9533962,3192,1941,1658,2058,1745186944872707034
9534962,3168,1890,1673,2067,1745186944872707034
9535962,3144,1827,1685,2082,1745186944872707034
9536962,3125,1768,1693,2098,1745186944872707034
9537963,3113,1721,1681,2112,1745186944872707034
9538963,3107,1695,1652,2121,1745186944872707034
9539963,3107,1696,1616,2130,1745186944872707034
9540963,3114,1720,1587,2136,1745186944872707034
9541963,3121,1757,1576,2130,1745186944872707034
9542963,3126,1816,1592,2117,1745186944872707034
9543963,3129,1870,1623,2102,1745186944872707034
9544963,3131,1908,1648,2101,1745186944872707034
9545963,3131,1929,1665,2104,1745186944872707034
9546963,3121,1942,1672,2103,1745186944872707034
9547964,3115,1941,1682,2101,1745186944872707034
9548966,3097,1927,1713,2097,1745186944872707034
9549964,3082,1906,1747,2089,1745186944872707034
9550964,3061,1890,1780,2084,1745186944872707034
9551964,3042,1875,1824,2094,1745186944872707034
9552964,3024,1884,1837,2100,1745186944872707034
9553964,2995,1889,1840,2113,1745186944872707034
9554964,2979,1885,1828,2125,1745186944872707034
9555964,2954,1869,1812,2129,1745186944872707034
9556964,2931,1851,1795,2130,1745186944872707034
9557964,2916,1840,1783,2130,1745186944872707034
9558964,2904,1850,1777,2135,1745186944872707034
9559964,2904,1875,1779,2150,1745186944872707034
9560964,2909,1916,1786,2162,1745186944872707034
9561965,2922,1958,1792,2165,1745186944872707034
9562965,2933,1997,1795,2161,1745186944872707034
9563965,2944,2032,1802,2140,1745186944872707034
9564965,3030,2120,1848,2154,1745186944872707034
9565965,2940,2080,1794,2053,1745186944872707034
9566965,2928,2118,1828,2007,1745186944872707034
9567965,2927,2140,1852,1965,1745186944872707034
9568965,2916,2150,1866,1929,1745186944872707034
9569965,2918,2145,1851,1904,1745186944872707034
9570965,2892,2145,1818,1892,1745186944872707034
9571965,2881,2133,1762,1900,1745186944872707034
9572965,2865,2117,1706,1916,1745186944872707034
9573966,2842,2094,1658,1938,1745186944872707034
9574966,2817,2067,1642,1962,1745186944872707034
9575966,2793,2033,1653,1994,1745186944872707034
9576966,2767,1996,1694,2018,1745186944872707034
9577966,2752,1960,1747,2035,1745186944872707034
9578966,2739,1934,1792,2038,1745186944872707034
9579966,2738,1926,1821,2028,1745186944872707034
9580966,2741,1941,1834,2011,1745186944872707034
9581966,2750,1973,1838,1986,1745186944872707034
9582966,2760,2016,1837,1975,1745186944872707034
9583966,2771,2068,1837,1967,1745186944872707034
9584966,2772,2125,1842,1968,1745186944872707034
9585967,2770,2186,1849,1971,1745186944872707034
9586967,2764,2241,1856,1973,1745186944872707034
9587967,2757,2272,1857,1977,1745186944872707034
9588967,2747,2261,1865,1985,1745186944930526975
9589967,2732,2228,1862,1986,1745186944930526975
9590967,2714,2189,1859,1988,1745186944930526975
9591967,2697,2147,1857,1993,1745186944930526975
9592967,2674,2107,1856,2005,1745186944930526975
9593967,2653,2066,1857,2028,1745186944930526975
9594967,2628,2019,1860,2056,1745186944930526975
9595967,2606,1980,1859,2075,1745186944930526975
9596967,2582,1949,1857,2091,1745186944930526975
9597968,2568,1932,1843,2101,1745186944930526975
9598968,2560,1929,1823,2113,1745186944930526975
9599968,2560,1937,1801,2115,1745186944930526975
9600968,2568,1954,1784,2112,1745186944930526975
9601968,2576,1980,1782,2096,1745186944930526975
9602968,2585,2013,1797,2078,1745186944930526975
9603968,2596,2049,1824,2052,1745186944930526975
9604968,2602,2078,1842,2026,1745186944930526975
9605968,2605,2105,1854,1993,1745186944930526975
9606968,2604,2129,1853,1949,1745186944930526975
9607969,2592,2156,1866,1910,1745186944930526975
9608968,2574,2179,1875,1881,1745186944930526975
9609969,2560,2195,1896,1858,1745186944930526975
9610969,2548,2202,1925,1892,1745186944930526975
9611969,2596,2253,1989,1897,1745186944930526975
9612969,2500,2146,1933,1869,1745186944930526975
9613969,2474,2112,1932,1907,1745186944930526975
9614969,2456,2050,1917,1949,1745186944930526975
9615969,2441,1985,1901,1999,1745186944930526975
9616969,2422,1941,1890,1993,1745186944930526975
9617969,2425,1937,1896,1989,1745186944930526975
9618969,2418,1945,1907,1967,1745186944930526975
9619969,2417,1968,1909,1940,1745186944930526975
9620969,2422,2001,1898,1913,1745186944930526975
9621970,2434,2049,1889,1884,1745186944930526975
9622970,2446,2103,1877,1865,1745186944930526975
9623970,2459,2158,1884,1846,1745186944930526975
9624970,2467,2209,1911,1833,1745186944930526975
9625970,2471,2258,1951,1820,1745186944930526975
9626970,2472,2292,1980,1818,1745186944930526975
9627970,2470,2312,1988,1827,1745186944930526975
9628970,2461,2324,1981,1834,1745186944930526975
9629970,2452,2327,1970,1837,1745186944930526975
9630970,2441,2312,1958,1845,1745186944930526975
9631970,2427,2277,1949,1857,1745186944930526975
9632970,2409,2231,1955,1872,1745186944930526975
9633971,2390,2186,1957,1888,1745186944930526975
9634971,2370,2144,1948,1915,1745186944930526975
9635971,2353,2097,1940,1945,1745186944930526975
9636971,2337,2050,1921,1974,1745186944930526975
9637971,2330,2006,1904,1990,1745186944930526975
9638971,2324,1979,1891,1998,1745186944930526975
9639971,2325,1968,1899,2004,1745186944930526975
9640971,2334,1978,1913,2009,1745186944930526975
9641971,2345,2006,1928,2015,1745186944930526975
9642971,2356,2050,1952,2030,1745186944930526975
9643971,2362,2101,1962,2045,1745186944930526975
9644971,2363,2153,1971,2066,1745186944930526975
9645972,2362,2197,1981,2088,1745186944930526975
9646972,2357,2238,1985,2104,1745186944985084237
9647972,2350,2268,1989,2107,1745186944985084237
9648972,2340,2288,1994,2096,1745186944985084237
9649972,2332,2293,2008,2077,1745186944985084237
9650972,2317,2283,2022,2053,1745186944985084237
9651972,2305,2261,2041,2030,1745186944985084237
9652972,2292,2222,2065,2017,1745186944985084237
9653972,2274,2163,2082,2007,1745186944985084237
9654972,2257,2096,2094,2005,1745186944985084237
9655972,2238,2029,2092,2000,1745186944985084237
9656972,2224,1981,2082,1997,1745186944985084237
9657973,2216,1950,2062,1994,1745186944985084237
9658973,2210,1934,2034,1992,1745186944985084237
9659973,2213,1937,2010,1992,1745186944985084237
9660973,2222,1957,1988,1994,1745186944985084237
9661973,2234,1994,1970,1993,1745186944985084237
9662974,2248,2037,1957,1984,1745186944985084237
9663973,2261,2089,1955,1984,1745186944985084237
9664973,2273,2133,1961,1992,1745186944985084237
9665973,2280,2174,1953,2002,1745186944985084237
9666973,2282,2205,1933,2003,1745186944985084237
9667973,2283,2225,1906,2012,1745186944985084237
9668973,2273,2234,1890,2016,1745186944985084237
9669974,2323,2285,1932,2057,1745186944985084237
9670974,2242,2193,1890,1980,1745186944985084237
9671974,2222,2179,1946,1958,1745186944985084237
9672974,2209,2146,1986,1945,1745186944985084237
9673974,2192,2104,2019,1933,1745186944985084237
9674974,2186,2048,2048,1934,1745186944985084237
9675974,2157,2011,2062,1940,1745186944985084237
9676974,2144,1972,2058,1960,1745186944985084237
9677974,2136,1943,2032,1996,1745186944985084237
9678974,2130,1936,2016,2041,1745186944985084237
9679974,2131,1944,2009,2084,1745186944985084237
9680974,2139,1970,2020,2113,1745186944985084237
9681975,2154,2009,2054,2127,1745186944985084237
9682975,2166,2061,2080,2117,1745186944985084237
9683975,2179,2112,2097,2087,1745186944985084237
9684975,2191,2164,2092,2037,1745186944985084237
9685975,2197,2204,2067,1982,1745186944985084237
9686975,2199,2234,2034,1924,1745186944985084237
9687975,2198,2254,2003,1877,1745186944985084237
9688975,2191,2266,1983,1836,1745186944985084237
9689975,2184,2266,1966,1810,1745186944985084237
9690975,2176,2258,1950,1800,1745186944985084237
9691975,2164,2244,1933,1805,1745186944985084237
9692975,2152,2219,1925,1828,1745186944985084237
9693976,2137,2182,1926,1862,1745186944985084237
9694976,2122,2138,1949,1897,1745186944985084237
9695976,2109,2094,1988,1928,1745186944985084237
9696976,2100,2051,2027,1942,1745186944985084237
9697976,2099,2016,2054,1947,1745186944985084237
9698976,2099,2000,2053,1938,1745186944985084237
9699976,2108,2002,2033,1923,1745186944985084237
9700976,2123,2025,1995,1902,1745186944985084237
9701976,2143,2066,1952,1877,1745186944985084237
9702976,2159,2113,1922,1857,1745186944985084237
9703976,2173,2162,1915,1841,1745186944985084237
9704976,2180,2210,1929,1838,1745186945045917483
9705977,2185,2250,1957,1854,1745186945045917483
9706977,2182,2284,1988,1893,1745186945045917483
9707977,2173,2309,2007,1942,1745186945045917483
9708977,2164,2328,2010,2001,1745186945045917483
9709977,2150,2334,2017,2060,1745186945045917483
9710977,2133,2328,2022,2097,1745186945045917483
9711977,2121,2297,2028,2116,1745186945045917483
9712977,2108,2240,2049,2117,1745186945045917483
9713977,2094,2177,2063,2120,1745186945045917483
9714977,2080,2120,2062,2117,1745186945045917483
9715977,2067,2070,2055,2125,1745186945045917483
9716977,2054,2026,2053,2136,1745186945045917483
9717978,2048,1995,2059,2142,1745186945045917483
9718978,2041,1988,2061,2147,1745186945045917483
9719978,2048,2000,2052,2146,1745186945045917483
9720978,2060,2024,2020,2141,1745186945045917483
9721978,2076,2054,1993,2131,1745186945045917483
9722978,2096,2093,1969,2116,1745186945045917483
9723978,2112,2130,1998,2145,1745186945045917483
9724978,2170,2226,1933,2043,1745186945045917483
9725978,2099,2195,1941,2018,1745186945045917483
9726978,2114,2217,1966,1993,1745186945045917483
9727978,2112,2229,1990,1968,1745186945045917483
9728978,2104,2236,2015,1951,1745186945045917483
9729979,2091,2237,2037,1939,1745186945045917483
9730979,2073,2241,2050,1928,1745186945045917483
9731979,2060,2219,2064,1932,1745186945045917483
9732979,2048,2189,2072,1956,1745186945045917483
9733979,2029,2149,2077,2001,1745186945045917483
9734979,2012,2101,2082,2065,1745186945045917483
9735979,1996,2048,2082,2132,1745186945045917483
9736979,1987,2001,2073,2182,1745186945045917483
9737979,1981,1968,2061,2222,1745186945045917483
9738979,1980,1955,2050,2240,1745186945045917483
9739979,1986,1960,2038,2237,1745186945045917483
9740979,1998,1988,2038,2218,1745186945045917483
9741980,2016,2025,2050,2192,1745186945045917483
9742980,2034,2082,2083,2173,1745186945045917483
9743980,2052,2137,2087,2165,1745186945045917483
9744980,2067,2187,2089,2172,1745186945045917483
9745980,2075,2228,2081,2165,1745186945045917483
9746980,2074,2261,2073,2137,1745186945045917483
9747980,2066,2284,2060,2088,1745186945045917483
9748980,2054,2294,2058,2025,1745186945045917483
9749980,2051,2293,2067,1958,1745186945045917483
9750980,2050,2286,2075,1901,1745186945045917483
9751980,2042,2268,2054,1856,1745186945045917483
9752980,2021,2237,2017,1841,1745186945045917483
9753981,1986,2194,1978,1856,1745186945045917483
9754983,1942,2142,1953,1906,1745186945045917483
9755981,1901,2090,1969,1963,1745186945045917483
9756982,1873,2044,2025,2027,1745186945045917483
9757981,1857,2011,2101,2089,1745186945045917483
9758981,1860,1996,2159,2142,1745186945045917483
9759981,1877,2002,2185,2180,1745186945045917483
9760981,1902,2028,2160,2197,1745186945045917483
9761981,1929,2070,2105,2188,1745186945045917483
9762981,1949,2122,2050,2152,1745186945102382019
9763981,1964,2176,2009,2107,1745186945102382019
9764981,1976,2225,1994,2053,1745186945102382019
9765982,1988,2264,2012,2004,1745186945102382019
9766982,2004,2296,2052,1962,1745186945102382019
9767982,2012,2314,2095,1937,1745186945102382019
9768982,2012,2321,2112,1930,1745186945102382019
9769982,2007,2314,2096,1940,1745186945102382019
9770982,1987,2297,2058,1965,1745186945102382019
9771982,1940,2273,2008,1986,1745186945102382019
9772982,1877,2233,1964,2011,1745186945102382019
9773982,1806,2185,1938,2037,1745186945102382019
9774982,1757,2131,1936,2064,1745186945102382019
9775982,1709,2078,1949,2086,1745186945102382019
9776982,1670,2029,1970,2108,1745186945102382019
9777983,1648,1996,1994,2113,1745186945102382019
9778983,1654,1980,2009,2100,1745186945102382019
9779983,1701,1984,2041,2068,1745186945102382019
9780983,1781,2010,2084,2024,1745186945102382019
9781983,1874,2050,2117,2001,1745186945102382019
9782983,1964,2106,2185,1997,1745186945102382019
9783983,2034,2155,2207,1994,1745186945102382019
9784983,2088,2257,2267,2061,1745186945102382019
9785983,2168,2286,2171,1995,1745186945102382019
9786983,2122,2253,2137,2021,1745186945102382019
9787983,2145,2268,2121,2040,1745186945102382019
9788983,2166,2273,2123,2050,1745186945102382019
9789984,2200,2301,2128,2037,1745186945102382019
9790984,2232,2242,2131,2040,1745186945102382019
9791984,2249,2215,2120,2049,1745186945102382019
9792984,2241,2173,2094,2078,1745186945102382019
9793984,2216,2123,2080,2125,1745186945102382019
9794984,2180,2069,2084,2178,1745186945102382019
9795984,2140,2017,2105,2230,1745186945102382019
9796984,2101,1973,2124,2275,1745186945102382019
9797984,2067,1944,2132,2307,1745186945102382019
9798984,2029,1936,2148,2323,1745186945102382019
9799984,2003,1949,2161,2312,1745186945102382019
9800984,1984,1997,2153,2286,1745186945102382019
9801985,1974,2036,2125,2246,1745186945102382019
9802985,1971,2095,2088,2212,1745186945102382019
9803985,1964,2153,2052,2173,1745186945102382019
9804985,1954,2204,2021,2141,1745186945102382019
9805985,1939,2245,2005,2113,1745186945102382019
9806985,1921,2277,1990,2089,1745186945102382019
9807985,1906,2297,1980,2066,1745186945102382019
9808985,1900,2307,1969,2044,1745186945102382019
9809985,1905,2308,1970,2037,1745186945102382019
9810985,1922,2298,1981,2056,1745186945102382019
9811985,1939,2277,2004,2104,1745186945102382019
9812985,1958,2243,2020,2165,1745186945102382019
9813986,1976,2192,2038,2227,1745186945102382019
9814986,1990,2130,2036,2288,1745186945102382019
9815986,1996,2067,2025,2325,1745186945102382019
9816986,2000,2012,2013,2326,1745186945102382019
9817986,2008,1972,2017,2276,1745186945102382019
9818986,2013,1949,2049,2179,1745186945102382019
9819986,2020,1945,2089,2051,1745186945102382019
9820986,2027,1963,2118,1918,1745186945163667293
9821986,2029,1995,2132,1820,1745186945163667293
9822986,2019,2037,2129,1780,1745186945163667293
9823986,2004,2086,2126,1786,1745186945163667293
9824986,1990,2131,2116,1826,1745186945163667293
9825987,1978,2173,2100,1866,1745186945163667293
9826987,1968,2210,2089,1903,1745186945163667293
9827987,1963,2243,2089,1946,1745186945163667293
9828987,1961,2267,2085,1974,1745186945163667293
9829987,1952,2281,2075,2012,1745186945163667293
9830987,1941,2280,2059,2074,1745186945163667293
9831987,1934,2261,2044,2156,1745186945163667293
9832987,1928,2224,2036,2232,1745186945163667293
9833987,1929,2171,2037,2268,1745186945163667293
9834987,1936,2109,2052,2230,1745186945163667293
9835987,1948,2052,2067,2130,1745186945163667293
9836987,1964,1995,2073,1980,1745186945163667293
9837988,1986,1956,2086,1833,1745186945163667293
9838988,2004,1934,2091,1728,1745186945163667293
9839988,2021,1935,2104,1711,1745186945163667293
9840988,2038,1954,2125,1824,1745186945163667293
9841988,2104,2036,2198,1915,1745186945163667293
9842988,2034,2012,2161,2076,1745186945163667293
9843988,2053,2076,2176,2222,1745186945163667293
9844988,2058,2127,2186,2321,1745186945163667293
9845988,2062,2163,2181,2400,1745186945163667293
9846988,2054,2189,2160,2354,1745186945163667293
9847988,2056,2204,2142,2294,1745186945163667293
9848988,2034,2212,2122,2220,1745186945163667293
9849989,2014,2208,2109,2157,1745186945163667293
9850989,1994,2198,2112,2121,1745186945163667293
9851989,1974,2178,2118,2117,1745186945163667293
9852989,1957,2145,2132,2141,1745186945163667293
9853989,1939,2100,2146,2177,1745186945163667293
9854989,1929,2048,2154,2186,1745186945163667293
9855989,1920,1990,2150,2156,1745186945163667293
9856989,1920,1941,2140,2098,1745186945163667293
9857989,1945,1901,2117,2018,1745186945163667293
9858989,1977,1877,2098,1945,1745186945163667293
9859989,2017,1870,2064,1891,1745186945163667293
9860989,2056,1885,2018,1872,1745186945163667293
9861990,2098,1915,1980,1885,1745186945163667293
9862990,2153,1956,1954,1906,1745186945163667293
9863990,2206,2004,1938,1933,1745186945163667293
9864990,2234,2048,1945,1956,1745186945163667293
9865990,2222,2084,1977,1968,1745186945163667293
9866990,2177,2116,2028,1936,1745186945163667293
9867990,2109,2135,2092,1869,1745186945163667293
9868990,2037,2147,2140,1802,1745186945163667293
9869990,1965,2149,2172,1746,1745186945163667293
9870990,1894,2141,2180,1704,1745186945163667293
9871990,1836,2122,2170,1666,1745186945163667293
9872990,1800,2092,2150,1648,1745186945163667293
9873991,1774,2048,2136,1660,1745186945163667293
9874991,1757,2000,2129,1720,1745186945163667293
9875991,1738,1953,2126,1813,1745186945163667293
9876991,1729,1915,2119,1915,1745186945163667293
9877991,1736,1885,2110,2021,1745186945163667293
9878991,1762,1878,2101,2113,1745186945231398289
9879991,1810,1892,2099,2161,1745186945231398289
9880991,1870,1927,2093,2147,1745186945231398289
9881991,1931,1972,2097,2094,1745186945231398289
9882991,1981,2027,2105,2038,1745186945231398289
9883991,2017,2081,2120,2020,1745186945231398289
9884991,2040,2133,2136,2024,1745186945231398289
9885992,2052,2180,2150,2042,1745186945231398289
9886992,2058,2220,2158,2074,1745186945231398289
9887992,2057,2259,2156,2081,1745186945231398289
9888992,2054,2290,2146,2024,1745186945231398289
9889992,2051,2312,2129,1942,1745186945231398289
9890992,2044,2318,2105,1841,1745186945231398289
9891992,2035,2308,2073,1757,1745186945231398289
9892992,2021,2280,2035,1695,1745186945231398289
9893992,2004,2232,2000,1685,1745186945231398289
9894992,1984,2176,1988,1730,1745186945231398289
9895992,1957,2125,2001,1806,1745186945231398289
9896992,1936,2080,2029,1912,1745186945231398289
9897993,1904,2053,2050,2023,1745186945231398289
9898994,1903,2041,2066,2105,1745186945231398289
9899993,1899,2051,2077,2153,1745186945231398289
9900993,1904,2083,2094,2138,1745186945231398289
9901993,1921,2127,2108,2036,1745186945231398289
9902993,2001,2237,2151,1966,1745186945231398289
9903993,1954,2205,2065,1801,1745186945231398289
9904993,1961,2245,2075,1746,1745186945231398289
9905993,1979,2272,2074,1707,1745186945231398289
9906993,1993,2284,2077,1680,1745186945231398289
9907993,2010,2283,2073,1659,1745186945231398289
9908993,2009,2274,2084,1665,1745186945231398289
9909994,2017,2258,2088,1679,1745186945231398289
9910994,2014,2234,2084,1715,1745186945231398289
9911994,2005,2195,2075,1780,1745186945231398289
9912994,1987,2144,2066,1873,1745186945231398289
9913994,1962,2076,2057,1997,1745186945231398289
9914994,1933,2002,2050,2131,1745186945231398289
9915994,1904,1930,2052,2257,1745186945231398289
9916994,1881,1865,2056,2357,1745186945231398289
9917994,1861,1817,2058,2408,1745186945231398289
9918994,1838,1790,2064,2410,1745186945231398289
9919994,1828,1787,2067,2380,1745186945231398289
9920994,1821,1803,2067,2326,1745186945231398289
9921995,1826,1837,2061,2268,1745186945231398289
9922995,1837,1882,2052,2209,1745186945231398289
9923995,1851,1932,2036,2167,1745186945231398289
9924995,1866,1979,2029,2129,1745186945231398289
9925995,1884,2015,2020,2098,1745186945231398289
9926995,1902,2042,2015,2075,1745186945231398289
9927995,1928,2054,2006,2043,1745186945231398289
9928995,1957,2052,2009,1988,1745186945231398289
9929995,1984,2035,2004,1922,1745186945231398289
9930995,2000,2011,1998,1845,1745186945231398289
9931995,2002,1974,1994,1769,1745186945231398289
9932995,1988,1925,1983,1702,1745186945231398289
9933996,1957,1867,1980,1669,1745186945231398289
9934996,1930,1805,1972,1694,1745186945231398289
9935996,1909,1758,1972,1760,1745186945231398289
9936996,1901,1716,1970,1840,1745186945280850233
9937996,1906,1693,1974,1940,1745186945280850233
9938996,1926,1695,1978,2038,1745186945280850233
9939996,1953,1718,1987,2128,1745186945280850233
9940996,1986,1763,1989,2200,1745186945280850233
9941996,2019,1821,1985,2261,1745186945280850233
9942996,2053,1891,1982,2299,1745186945280850233
9943996,2080,1969,1979,2278,1745186945280850233
9944996,2096,2042,1984,2187,1745186945280850233
9945997,2096,2109,1991,2059,1745186945280850233
9946997,2082,2167,2001,1933,1745186945280850233
9947997,2067,2216,2014,1830,1745186945280850233
9948997,2049,2257,2020,1781,1745186945280850233
9949997,2036,2281,2027,1780,1745186945280850233
9950997,2018,2294,2029,1845,1745186945280850233
9951997,2015,2293,2033,1942,1745186945280850233
9952997,2017,2280,2037,2027,1745186945280850233
9953997,2019,2251,2029,2079,1745186945280850233
9954999,2021,2212,2013,2073,1745186945280850233
9955997,2018,2186,1994,2013,1745186945280850233
9956998,2017,2167,1976,1908,1745186945280850233
9957998,2021,2154,1961,1784,1745186945280850233
9958998,2028,2176,1959,1652,1745186945280850233
9959998,2044,2216,1966,1534,1745186945280850233
9960998,2068,2270,1970,1429,1745186945280850233
9961998,2098,2329,1976,1352,1745186945280850233
9962998,2124,2388,1983,1318,1745186945280850233
9963998,2141,2443,1995,1348,1745186945280850233
9964998,2148,2490,2012,1422,1745186945280850233
9965998,2142,2523,2032,1502,1745186945280850233
9966998,2123,2546,2052,1576,1745186945280850233
9967998,2098,2552,2061,1637,1745186945280850233
9968998,2061,2547,2062,1693,1745186945280850233
9969999,2025,2526,2065,1786,1745186945280850233
9970999,2038,2558,2118,1769,1745186945280850233
9971999,1918,2422,2059,1810,1745186945280850233
9972999,1874,2381,2084,1868,1745186945280850233
9973999,1830,2319,2100,1926,1745186945280850233
9974999,1790,2251,2110,1980,1745186945280850233
9975999,1760,2179,2110,2010,1745186945280850233
9976999,1733,2126,2113,2038,1745186945280850233
9977999,1720,2081,2106,2042,1745186945280850233
9978999,1706,2057,2100,2042,1745186945280850233
9979999,1696,2058,2106,2021,1745186945280850233
9980999,1688,2084,2115,1972,1745186945280850233
9982000,1684,2122,2130,1918,1745186945280850233
9983000,1682,2162,2136,1876,1745186945280850233
9984000,1686,2201,2125,1846,1745186945280850233
9985000,1689,2233,2099,1824,1745186945280850233
9986000,1692,2253,2074,1796,1745186945280850233
9987000,1693,2260,2066,1744,1745186945280850233
9988000,1692,2254,2075,1665,1745186945280850233
9989000,1691,2238,2090,1586,1745186945280850233
9990000,1693,2209,2112,1540,1745186945280850233
9991000,1695,2165,2128,1545,1745186945280850233
9992000,1697,2114,2139,1606,1745186945280850233
9993000,1692,2051,2149,1709,1745186945280850233
9994001,1685,1981,2160,1821,1745186945280850233
9995001,1682,1910,2174,1923,1745186945335554785
9996001,1682,1835,2178,1999,1745186945335554785
9997001,1692,1766,2177,2040,1745186945335554785
9998001,1709,1710,2174,2076,1745186945335554785
9999001,1730,1674,2168,2107,1745186945335554785
10000001,1757,1658,2162,2131,1745186945335554785
10001001,1785,1661,2153,2169,1745186945335554785
10002001,1818,1688,2136,2180,1745186945335554785
10003001,1845,1728,2116,2114,1745186945335554785
10004001,1875,1764,2112,1965,1745186945335554785
10005001,1896,1800,2118,1814,1745186945335554785
10006002,1922,1830,2129,1708,1745186945335554785
10007002,1941,1856,2153,1667,1745186945335554785
10008002,1950,1869,2166,1714,1745186945335554785
10009002,1960,1879,2181,1835,1745186945335554785
10010002,1964,1886,2197,1985,1745186945335554785
10011002,1965,1888,2214,2115,1745186945335554785
10012002,1965,1880,2233,2207,1745186945335554785
10013002,1963,1857,2253,2249,1745186945335554785
10014002,1957,1822,2256,2258,1745186945335554785
10015002,1954,1780,2242,2232,1745186945335554785
10016002,1953,1732,2203,2192,1745186945335554785
10017004,1955,1692,2166,2149,1745186945335554785
10018003,1969,1661,2117,2108,1745186945335554785
10019003,1990,1657,2072,2044,1745186945335554785
10020003,2017,1673,2025,2017,1745186945335554785
10021003,2112,1712,1989,1821,1745186945335554785
10022003,2065,1749,1976,1754,1745186945335554785
10023003,2099,1829,1986,1741,1745186945335554785
10024003,2125,1908,2011,1795,1745186945335554785
10025003,2147,1985,2057,1884,1745186945335554785
10026003,2160,2050,2076,1973,1745186945335554785
10027003,2186,2107,2091,2042,1745186945335554785
10028003,2204,2142,2100,2078,1745186945335554785
10029003,2206,2164,2096,2072,1745186945335554785
10030004,2209,2172,2082,2038,1745186945335554785
10031004,2204,2161,2067,2000,1745186945335554785
10032004,2193,2134,2054,1950,1745186945335554785
10033004,2174,2093,2049,1875,1745186945335554785
10034004,2152,2039,2056,1785,1745186945335554785
10035004,2129,1979,2073,1695,1745186945335554785
10036004,2114,1920,2097,1665,1745186945335554785
10037004,2098,1873,2114,1749,1745186945335554785
10038004,2099,1840,2128,1956,1745186945335554785
10039004,2106,1833,2134,2216,1745186945335554785
10040004,2123,1851,2125,2469,1745186945335554785
10041004,2150,1893,2121,2643,1745186945335554785
10042005,2177,1955,2113,2702,1745186945335554785
10043005,2203,2026,2101,2607,1745186945335554785
10044005,2226,2102,2089,2420,1745186945335554785
10045005,2247,2170,2081,2232,1745186945335554785
10046005,2258,2226,2085,2105,1745186945335554785
10047005,2266,2267,2104,2062,1745186945335554785
10048005,2266,2292,2120,2082,1745186945335554785
10049005,2258,2300,2132,2150,1745186945335554785
10050005,2246,2306,2136,2216,1745186945335554785
10051005,2233,2307,2133,2242,1745186945335554785
10052005,2212,2299,2125,2229,1745186945335554785
10053005,2191,2273,2116,2195,1745186945395604758
10054006,2164,2227,2105,2147,1745186945395604758
10055006,2138,2169,2090,2093,1745186945395604758
10056006,2112,2108,2077,2034,1745186945395604758
10057006,2090,2054,2067,1988,1745186945395604758
10058006,2081,2010,2061,1977,1745186945395604758
10059006,2082,1992,2058,2014,1745186945395604758
10060006,2090,2003,2054,2072,1745186945395604758
10061006,2108,2043,2052,2093,1745186945395604758
10062006,2128,2107,2055,2057,1745186945395604758
10063006,2152,2174,2053,1979,1745186945395604758
10064006,2170,2244,2051,1901,1745186945395604758
10065006,2185,2307,2050,1891,1745186945395604758
10066007,2189,2357,2050,1962,1745186945395604758
10067007,2185,2394,2058,2085,1745186945395604758
10068007,2176,2418,2070,2193,1745186945395604758
10069007,2162,2428,2076,2260,1745186945395604758
10070007,2141,2427,2080,2308,1745186945395604758
10071007,2119,2414,2085,2340,1745186945395604758
10072009,2095,2384,2090,2359,1745186945395604758
10073007,2069,2341,2098,2368,1745186945395604758
10074007,2038,2285,2102,2378,1745186945395604758
10075007,2000,2220,2166,2459,1745186945395604758
10076007,1985,2147,2080,2390,1745186945395604758
10077007,1953,2100,2079,2416,1745186945395604758
10078008,1947,2064,2066,2418,1745186945395604758
10079008,1949,2044,2056,2404,1745186945395604758
10080008,1978,2045,2040,2352,1745186945395604758
10081008,1987,2069,2050,2281,1745186945395604758
10082008,2009,2109,2059,2182,1745186945395604758
10083008,2026,2163,2074,2102,1745186945395604758
10084008,2040,2216,2087,2050,1745186945395604758
10085008,2051,2261,2093,2007,1745186945395604758
10086008,2065,2298,2097,1956,1745186945395604758
10087008,2073,2319,2102,1910,1745186945395604758
10088008,2080,2331,2098,1857,1745186945395604758
10089008,2075,2338,2092,1846,1745186945395604758
10090009,2069,2334,2091,1907,1745186945395604758
10091009,2057,2322,2098,2025,1745186945395604758
10092009,2039,2302,2106,2150,1745186945395604758
10093009,2019,2265,2121,2248,1745186945395604758
10094009,2000,2213,2130,2299,1745186945395604758
10095009,1977,2149,2129,2306,1745186945395604758
10096009,1958,2086,2114,2280,1745186945395604758
10097009,1943,2027,2090,2258,1745186945395604758
10098009,1943,1985,2069,2265,1745186945395604758
10099009,1941,1970,2048,2310,1745186945395604758
10100009,1952,1977,2037,2363,1745186945395604758
10101009,1973,2013,2040,2396,1745186945395604758
10102010,1998,2062,2044,2373,1745186945395604758
10103010,2023,2121,2049,2278,1745186945395604758
10104010,2048,2178,2037,2133,1745186945395604758
10105010,2064,2230,2028,1979,1745186945395604758
10106010,2070,2281,2025,1843,1745186945395604758
10107010,2077,2323,2044,1762,1745186945395604758
10108010,2072,2354,2077,1742,1745186945395604758
10109010,2069,2376,2109,1800,1745186945395604758
10110010,2066,2386,2139,1909,1745186945395604758
10111012,2060,2385,2162,2049,1745186945452689340
10112010,2050,2371,2184,2186,1745186945452689340
10113010,2032,2340,2202,2297,1745186945452689340
10114011,2012,2289,2224,2373,1745186945452689340
10115012,1995,2226,2236,2416,1745186945452689340
10116011,1979,2162,2239,2440,1745186945452689340
10117011,1970,2104,2232,2445,1745186945452689340
10118011,1969,2064,2214,2432,1745186945452689340
10119011,1980,2042,2182,2402,1745186945452689340
10120011,2003,2052,2139,2354,1745186945452689340
10121011,2029,2084,2102,2292,1745186945452689340
10122011,2060,2130,2082,2224,1745186945452689340
10123011,2082,2188,2074,2164,1745186945452689340
10124011,2106,2243,2075,2107,1745186945452689340
10125011,2120,2291,2090,2026,1745186945452689340
10126012,2128,2323,2118,1952,1745186945452689340
10127012,2130,2344,2152,1896,1745186945452689340
10128012,2123,2349,2179,1865,1745186945452689340
10129012,2108,2340,2210,1845,1745186945452689340
10130012,2088,2334,2240,1858,1745186945452689340
10131012,2061,2280,2253,1893,1745186945452689340
10132012,2041,2256,2245,1969,1745186945452689340
10133012,2011,2209,2238,2077,1745186945452689340
10134012,1985,2156,2232,2244,1745186945452689340
10135012,1956,2108,2289,2380,1745186945452689340
10136012,1939,2010,2202,2363,1745186945452689340
10137012,1920,1955,2223,2361,1745186945452689340
10138013,1922,1912,2233,2300,1745186945452689340
10139013,1928,1890,2248,2193,1745186945452689340
10140013,1940,1893,2265,2091,1745186945452689340
10141013,1964,1922,2283,2026,1745186945452689340
10142013,1977,1974,2314,2026,1745186945452689340
10143013,2002,2040,2333,2056,1745186945452689340
10144013,2021,2108,2334,2104,1745186945452689340
10145013,2034,2153,2331,2149,1745186945452689340
10146013,2040,2180,2333,2161,1745186945452689340
10147013,2038,2189,2353,2142,1745186945452689340
10148013,2036,2179,2392,2104,1745186945452689340
10149013,2023,2157,2452,2048,1745186945452689340
10150014,2008,2122,2506,1989,1745186945452689340
10151014,1996,2076,2541,1944,1745186945452689340
10152014,1980,2014,2535,1914,1745186945452689340
10153014,1962,1944,2494,1896,1745186945452689340
10154014,1939,1870,2438,1861,1745186945452689340
10155014,1916,1797,2395,1777,1745186945452689340
10156014,1897,1731,2369,1637,1745186945452689340
10157014,1884,1674,2353,1494,1745186945452689340
10158014,1883,1630,2356,1388,1745186945452689340
10159014,1882,1608,2357,1353,1745186945452689340
10160014,1895,1610,2355,1400,1745186945452689340
10161014,1915,1636,2341,1507,1745186945452689340
10162015,1939,1678,2317,1616,1745186945452689340
10163015,1964,1731,2286,1734,1745186945452689340
10164015,1981,1785,2268,1878,1745186945452689340
10165015,1990,1837,2267,2044,1745186945452689340
10166015,1997,1889,2288,2173,1745186945452689340
10167015,1997,1928,2320,2234,1745186945452689340
10168015,1992,1945,2341,2253,1745186945452689340
10169015,1984,1939,2338,2284,1745186945513894250
10170015,1976,1908,2312,2324,1745186945513894250
10171015,1967,1856,2271,2366,1745186945513894250
10172015,1954,1785,2227,2412,1745186945513894250
10173015,1938,1723,2186,2461,1745186945513894250
10174016,1918,1658,2155,2505,1745186945513894250
10175016,1894,1602,2130,2535,1745186945513894250
10176016,1880,1563,2120,2538,1745186945513894250
10177016,1872,1552,2112,2493,1745186945513894250
10178016,1874,1570,2105,2410,1745186945513894250
10179016,1888,1618,2088,2314,1745186945513894250
10180016,1910,1685,2067,2231,1745186945513894250
10181016,1938,1763,2037,2148,1745186945513894250
10182016,1974,1846,2002,2065,1745186945513894250
10183016,2012,1928,1955,1962,1745186945513894250
10184016,2057,1994,1893,1850,1745186945513894250
10185016,2102,2042,1834,1754,1745186945513894250
10186017,2144,2073,1779,1698,1745186945513894250
10187017,2171,2085,1745,1722,1745186945513894250
10188017,2180,2083,1757,1817,1745186945513894250
10189017,2169,2064,1824,1890,1745186945513894250
10190017,2160,2035,1916,1888,1745186945513894250
10191018,2153,1998,2003,1809,1745186945513894250
10192017,2142,1962,2104,1762,1745186945513894250
10193017,2133,1907,2003,1632,1745186945513894250
10194017,2106,1861,1956,1629,1745186945513894250
10195017,2090,1822,1882,1708,1745186945513894250
10196017,2077,1793,1819,1836,1745186945513894250
10197017,2075,1749,1770,1967,1745186945513894250
10198018,2090,1720,1746,2022,1745186945513894250
10199018,2094,1699,1764,2021,1745186945513894250
10200018,2122,1701,1797,1946,1745186945513894250
10201018,2161,1724,1824,1898,1745186945513894250
10202018,2216,1761,1825,1925,1745186945513894250
10203018,2280,1806,1791,2048,1745186945513894250
10204018,2347,1856,1725,2234,1745186945513894250
10205018,2409,1907,1641,2422,1745186945513894250
10206018,2455,1952,1558,2529,1745186945513894250
10207018,2476,1993,1500,2505,1745186945513894250
10208018,2468,2016,1460,2374,1745186945513894250
10209018,2425,2038,1462,2200,1745186945513894250
10210019,2384,2056,1508,2038,1745186945513894250
10211019,2340,2054,1580,1972,1745186945513894250
10212019,2304,2034,1680,2006,1745186945513894250
10213019,2274,1989,1764,2118,1745186945513894250
10214019,2249,1928,1813,2241,1745186945513894250
10215019,2229,1859,1822,2309,1745186945513894250
10216019,2208,1794,1791,2302,1745186945513894250
10217019,2185,1744,1747,2246,1745186945513894250
10218019,2164,1725,1710,2170,1745186945513894250
10219019,2137,1752,1693,2105,1745186945513894250
10220019,2115,1810,1705,2068,1745186945513894250
10221019,2096,1890,1730,2058,1745186945513894250
10222020,2078,1974,1748,2056,1745186945513894250
10223020,2057,2061,1736,2076,1745186945513894250
10224020,2034,2136,1686,2107,1745186945513894250
10225020,2011,2206,1624,2126,1745186945513894250
10226020,1989,2260,1572,2136,1745186945513894250
10227020,1963,2306,1554,2132,1745186945569192599
10228020,1935,2333,1584,2105,1745186945569192599
10229020,1902,2344,1667,2058,1745186945569192599
10230020,1866,2339,1777,2009,1745186945569192599
10231020,1828,2322,1865,1968,1745186945569192599
10232020,1792,2297,1901,1940,1745186945569192599
10233020,1756,2264,1867,1941,1745186945569192599
10234021,1723,2225,1772,1958,1745186945569192599
10235021,1693,2185,1654,2000,1745186945569192599
10236021,1669,2157,1542,2044,1745186945569192599
10237021,1650,2142,1461,2073,1745186945569192599
10238021,1640,2155,1411,2078,1745186945569192599
10239021,1638,2203,1403,2054,1745186945569192599
10240021,1642,2282,1429,2003,1745186945569192599
10241021,1654,2379,1466,1940,1745186945569192599
10242021,1670,2466,1492,1856,1745186945569192599
10243021,1692,2546,1512,1744,1745186945569192599
10244021,1709,2585,1530,1628,1745186945569192599
10245021,1722,2594,1553,1572,1745186945569192599
10246022,1724,2571,1588,1627,1745186945569192599
10247022,1714,2535,1642,1771,1745186945569192599
10248022,1692,2478,1721,1965,1745186945569192599
10249022,1668,2463,1801,2109,1745186945569192599
10250022,1641,2392,1837,2225,1745186945569192599
10251022,1627,2348,1844,2267,1745186945569192599
10252022,1611,2284,1825,2256,1745186945569192599
10253022,1585,2230,1825,2276,1745186945569192599
10254022,1608,2172,1816,2122,1745186945569192599
10255022,1538,2096,1835,2040,1745186945569192599
10256022,1535,2027,1852,1934,1745186945569192599
10257022,1531,1964,1867,1840,1745186945569192599
10258023,1535,1910,1861,1794,1745186945569192599
10259023,1540,1875,1824,1817,1745186945569192599
10260023,1556,1874,1779,1922,1745186945569192599
10261023,1581,1902,1720,2057,1745186945569192599
10262023,1605,1956,1670,2204,1745186945569192599
10263023,1627,2042,1644,2300,1745186945569192599
10264023,1652,2136,1638,2338,1745186945569192599
10265023,1673,2212,1650,2325,1745186945569192599
10266023,1689,2266,1681,2285,1745186945569192599
10267023,1697,2298,1739,2226,1745186945569192599
10268023,1691,2316,1810,2152,1745186945569192599
10269023,1678,2319,1876,2075,1745186945569192599
10270024,1665,2291,1915,2031,1745186945569192599
10271024,1650,2251,1899,2065,1745186945569192599
10272024,1636,2209,1852,2152,1745186945569192599
10273024,1625,2170,1789,2233,1745186945569192599
10274024,1614,2132,1730,2254,1745186945569192599
10275024,1608,2093,1698,2211,1745186945569192599
10276024,1603,2065,1702,2136,1745186945569192599
10277024,1602,2043,1737,2076,1745186945569192599
10278024,1604,2038,1785,2085,1745186945569192599
10279024,1608,2057,1830,2144,1745186945569192599
10280024,1618,2088,1862,2158,1745186945569192599
10281024,1636,2124,1874,2056,1745186945569192599
10282025,1659,2163,1878,1877,1745186945569192599
10283025,1681,2200,1866,1709,1745186945569192599
10284025,1706,2236,1861,1629,1745186945569192599
10285025,1724,2273,1877,1675,1745186945638980243
10286025,1743,2306,1906,1808,1745186945638980243
10287025,1759,2330,1942,1954,1745186945638980243
10288025,1772,2338,1977,2070,1745186945638980243
10289025,1781,2336,2010,2164,1745186945638980243
10290025,1792,2336,2036,2234,1745186945638980243
10291025,1800,2340,2042,2276,1745186945638980243
10292025,1805,2325,2022,2292,1745186945638980243
10293025,1814,2285,1980,2293,1745186945638980243
10294026,1820,2224,1936,2294,1745186945638980243
10295026,1825,2166,1912,2341,1745186945638980243
10296026,1833,2122,1906,2380,1745186945638980243
10297026,1844,2096,1901,2369,1745186945638980243
10298026,1865,2083,1881,2297,1745186945638980243
10299026,1892,2082,1850,2202,1745186945638980243
10300026,1930,2092,1829,2122,1745186945638980243
10301026,1964,2110,1838,2048,1745186945638980243
10302026,1995,2136,1882,1976,1745186945638980243
10303026,2021,2158,1952,1921,1745186945638980243
10304026,2037,2177,2025,1902,1745186945638980243
10305026,2057,2186,2082,1924,1745186945638980243
10306027,2068,2194,2117,1973,1745186945638980243
10307027,2083,2213,2141,2000,1745186945638980243
10308027,2092,2238,2158,1966,1745186945638980243
10309028,2161,2316,2156,1890,1745186945638980243
10310027,2150,2296,2136,1843,1745186945638980243
10311027,2071,2196,2109,1908,1745186945638980243
10312027,2077,2171,2114,2056,1745186945638980243
10313027,2074,2126,2149,2211,1745186945638980243
10314027,2076,2069,2204,2321,1745186945638980243
10315027,2092,2004,2254,2382,1745186945638980243
10316027,2081,1937,2282,2428,1745186945638980243
10317027,2106,1885,2297,2460,1745186945638980243
10318028,2131,1853,2288,2467,1745186945638980243
10319028,2155,1845,2253,2446,1745186945638980243
10320028,2186,1852,2195,2391,1745186945638980243
10321028,2219,1873,2117,2308,1745186945638980243
10322028,2252,1895,2037,2214,1745186945638980243
10323028,2281,1916,1985,2137,1745186945638980243
10324028,2306,1932,1955,2077,1745186945638980243
10325028,2326,1943,1934,2028,1745186945638980243
10326028,2339,1953,1919,1977,1745186945638980243
10327028,2345,1960,1899,1909,1745186945638980243
10328028,2348,1958,1884,1836,1745186945638980243
10329028,2341,1953,1884,1761,1745186945638980243
10330029,2340,1951,1891,1680,1745186945638980243
10331029,2336,1945,1888,1584,1745186945638980243
10332029,2330,1914,1872,1521,1745186945638980243
10333029,2317,1853,1849,1515,1745186945638980243
10334029,2304,1792,1823,1609,1745186945638980243
10335029,2290,1752,1813,1791,1745186945638980243
10336029,2284,1740,1833,1972,1745186945638980243
10337029,2284,1752,1884,2081,1745186945638980243
10338029,2290,1777,1950,2103,1745186945638980243
10339029,2307,1812,2019,2049,1745186945638980243
10340029,2328,1859,2086,1952,1745186945638980243
10341029,2344,1907,2144,1864,1745186945638980243
10342030,2357,1963,2181,1798,1745186945638980243
10343030,2366,2018,2194,1734,1745186945685781117
10344030,2370,2066,2187,1677,1745186945685781117
10345030,2372,2099,2182,1649,1745186945685781117
10346030,2370,2115,2179,1656,1745186945685781117
10347030,2368,2122,2188,1686,1745186945685781117
10348030,2366,2119,2192,1743,1745186945685781117
10349030,2363,2106,2188,1823,1745186945685781117
10350030,2351,2090,2177,1885,1745186945685781117
10351030,2340,2068,2150,1918,1745186945685781117
10352030,2329,2033,2124,1978,1745186945685781117
10353030,2320,1994,2107,2092,1745186945685781117
10354031,2314,1956,2091,2238,1745186945685781117
10355031,2306,1916,2074,2369,1745186945685781117
10356031,2305,1885,2065,2454,1745186945685781117
10357031,2308,1858,2061,2489,1745186945685781117
10358031,2320,1842,2038,2491,1745186945685781117
10359031,2339,1841,2004,2446,1745186945685781117
10360031,2360,1853,1970,2337,1745186945685781117
10361031,2384,1878,1958,2193,1745186945685781117
10362031,2405,1907,1995,2059,1745186945685781117
10363031,2416,1939,2077,1954,1745186945685781117
10364031,2416,1972,2180,1888,1745186945685781117
10365031,2405,1997,2276,1876,1745186945685781117
10366032,2388,2013,2322,1888,1745186945685781117
10367032,2373,2008,2312,1885,1745186945685781117
10368032,2354,1996,2253,1878,1745186945685781117
10369032,2333,1962,2177,1898,1745186945685781117
10370032,2314,1908,2099,1906,1745186945685781117
10371032,2292,1862,2060,1879,1745186945685781117
10372032,2275,1796,2050,1784,1745186945685781117
10373032,2257,1726,2070,1694,1745186945685781117
10374032,2237,1667,2101,1657,1745186945685781117
10375032,2221,1629,2144,1718,1745186945685781117
10376032,2209,1612,2194,1855,1745186945685781117
10377032,2205,1618,2238,2088,1745186945685781117
10378033,2204,1680,2254,2318,1745186945685781117
10379033,2284,1717,2249,2395,1745186945685781117
10380033,2222,1757,2233,2491,1745186945685781117
10381033,2252,1817,2208,2505,1745186945685781117
10382033,2274,1877,2179,2469,1745186945685781117
10383033,2294,1949,2134,2427,1745186945685781117
10384033,2309,2028,2100,2416,1745186945685781117
10385033,2310,2092,2090,2400,1745186945685781117
10386033,2322,2142,2098,2350,1745186945685781117
10387033,2320,2165,2116,2278,1745186945685781117
10388033,2316,2174,2140,2176,1745186945685781117
10389033,2299,2176,2220,2098,1745186945685781117
10390034,2303,2158,2161,1896,1745186945685781117
10391034,2253,2141,2193,1824,1745186945685781117
10392034,2234,2135,2214,1792,1745186945685781117
10393034,2231,2186,2298,1841,1745186945685781117
10394034,2229,2091,2261,1787,1745186945685781117
10395034,2128,2061,2314,1797,1745186945685781117
10396034,2116,2048,2363,1769,1745186945685781117
10397034,2105,2043,2386,1714,1745186945685781117
10398034,2104,2058,2384,1653,1745186945685781117
10399034,2110,2092,2368,1608,1745186945685781117
10400034,2122,2154,2345,1590,1745186945685781117
10401034,2136,2227,2314,1575,1745186945744574747
10402035,2146,2288,2273,1552,1745186945744574747
10403035,2152,2342,2221,1513,1745186945744574747
10404035,2156,2395,2157,1416,1745186945744574747
10405035,2156,2429,2093,1291,1745186945744574747
10406035,2145,2448,2037,1213,1745186945744574747
10407035,2129,2449,2016,1238,1745186945744574747
10408035,2108,2436,2016,1382,1745186945744574747
10409035,2084,2424,2034,1585,1745186945744574747
10410035,2061,2402,2072,1766,1745186945744574747
10411035,2039,2368,2106,1870,1745186945744574747
10412035,2025,2320,2130,1914,1745186945744574747
10413035,2012,2267,2144,1950,1745186945744574747
10414036,2000,2206,2158,1993,1745186945744574747
10415036,1988,2153,2189,2023,1745186945744574747
10416036,1979,2102,2250,2033,1745186945744574747
10417036,1971,2070,2326,2032,1745186945744574747
10418036,1965,2057,2397,2022,1745186945744574747
10419036,1966,2064,2445,2019,1745186945744574747
10420036,1970,2089,2454,2022,1745186945744574747
10421036,1980,2126,2422,2034,1745186945744574747
10422036,1990,2172,2365,2029,1745186945744574747
10423037,1993,2220,2301,2019,1745186945744574747
10424036,1997,2266,2243,1999,1745186945744574747
10425037,1997,2308,2261,2012,1745186945744574747
10426037,2034,2327,2156,1851,1745186945744574747
10427037,1972,2328,2155,1742,1745186945744574747
10428037,1965,2309,2154,1608,1745186945744574747
10429037,1955,2284,2164,1497,1745186945744574747
10430037,1939,2240,2179,1428,1745186945744574747
10431037,1918,2193,2206,1478,1745186945744574747
10432037,1893,2149,2233,1625,1745186945744574747
10433037,1864,2109,2227,1749,1745186945744574747
10434037,1834,2062,2185,1715,1745186945744574747
10435037,1808,1991,2116,1420,1745186945744574747
10436037,1788,1916,2060,1091,1745186945744574747
10437037,1773,1838,2018,853,1745186945744574747
10438038,1763,1781,2037,784,1745186945744574747
10439038,1763,1784,2140,1024,1745186945744574747
10440038,1777,1885,2276,1448,1745186945744574747
10441038,1795,2039,2395,1893,1745186945744574747
10442038,1809,2176,2481,2264,1745186945744574747
10443038,1808,2264,2533,2504,1745186945744574747
10444038,1801,2314,2559,2616,1745186945744574747
10445038,1793,2333,2559,2638,1745186945744574747
10446038,1787,2327,2556,2592,1745186945744574747
10447038,1782,2298,2538,2521,1745186945744574747
10448038,1780,2253,2508,2450,1745186945744574747
10449038,1774,2200,2476,2397,1745186945744574747
10450039,1772,2130,2448,2360,1745186945744574747
10451039,1766,2032,2420,2323,1745186945744574747
10452039,1765,1905,2399,2288,1745186945744574747
10453039,1763,1768,2376,2256,1745186945744574747
10454039,1763,1665,2350,2213,1745186945744574747
10455039,1768,1649,2314,2177,1745186945744574747
10456039,1769,1737,2285,2149,1745186945744574747
10457039,1785,1851,2257,2132,1745186945744574747
10458040,1786,1932,2229,2110,1745186945744574747
10459039,1788,1946,2203,2076,1745186945804862477
10460041,1807,1889,2173,2049,1745186945804862477
10461039,1827,1792,2133,2010,1745186945804862477
10462040,1858,1708,2085,1913,1745186945804862477
10463040,1892,1652,2022,1728,1745186945804862477
10464040,1924,1650,1963,1496,1745186945804862477
10465040,1948,1677,1917,1323,1745186945804862477
10466040,1958,1665,1925,1321,1745186945804862477
10467040,1960,1650,2014,1530,1745186945804862477
10468040,1953,1670,2154,1866,1745186945804862477
10469040,1945,1753,2290,2225,1745186945804862477
10470040,1930,1925,2398,2520,1745186945804862477
10471040,1907,2100,2460,2722,1745186945804862477
10472040,1881,2176,2470,2851,1745186945804862477
10473040,1860,2120,2441,2948,1745186945804862477
10474041,1845,1997,2380,3012,1745186945804862477
10475041,1845,1875,2298,3010,1745186945804862477
10476041,1861,1765,2212,2939,1745186945804862477
10477041,1885,1673,2140,2831,1745186945804862477
10478041,1916,1574,2099,2736,1745186945804862477
10479041,1950,1473,2108,2680,1745186945804862477
10480041,1985,1406,2152,2649,1745186945804862477
10481041,2018,1416,2211,2614,1745186945804862477
10482041,2036,1517,2262,2571,1745186945804862477
10483041,2060,1752,2290,2546,1745186945804862477
10484041,2076,2156,2364,2533,1745186945804862477
10485041,2104,2373,2266,2485,1745186945804862477
10486042,2124,2501,2252,2481,1745186945804862477
10487042,2161,2449,2231,2461,1745186945804862477
10488042,2179,2308,2197,2396,1745186945804862477
10489042,2176,2166,2196,2275,1745186945804862477
10490042,2190,2077,2225,2136,1745186945804862477
10491042,2145,2014,2236,2025,1745186945804862477
10492042,2125,1964,2240,2038,1745186945804862477
10493042,2099,1861,2228,2189,1745186945804862477
10494042,2086,1736,2213,2404,1745186945804862477
10495042,2081,1630,2208,2584,1745186945804862477
10496042,2097,1533,2201,2689,1745186945804862477
10497042,2119,1430,2183,2698,1745186945804862477
10498043,2137,1365,2146,2602,1745186945804862477
10499043,2138,1352,2112,2417,1745186945804862477
10500043,2151,1409,2081,2196,1745186945804862477
10501043,2170,1501,2053,2016,1745186945804862477
10502043,2195,1605,2032,1930,1745186945804862477
10503043,2212,1730,2008,1916,1745186945804862477
10504044,2209,1883,1987,1934,1745186945804862477
10505043,2212,2026,1968,1957,1745186945804862477
10506043,2207,2165,1961,2005,1745186945804862477
10507043,2209,2235,1964,2115,1745186945804862477
10508043,2213,2222,1953,2286,1745186945804862477
10509043,2198,2147,1945,2487,1745186945804862477
10510044,2186,2056,1941,2656,1745186945804862477
10511044,2174,1994,1938,2785,1745186945804862477
10512044,2170,1954,1947,2850,1745186945804862477
10513044,2170,1952,1977,2842,1745186945804862477
10514044,2168,1973,2016,2788,1745186945804862477
10515044,2172,1988,2048,2737,1745186945804862477
10516044,2189,1971,2042,2732,1745186945804862477
10517044,2210,1914,2013,2785,1745186945860856185
10518044,2237,1872,1974,2846,1745186945860856185
10519044,2258,1893,1933,2848,1745186945860856185
10520044,2274,1989,1920,2733,1745186945860856185
10521044,2274,2112,1953,2480,1745186945860856185
10522045,2265,2219,2032,2133,1745186945860856185
10523045,2256,2297,2129,1804,1745186945860856185
10524045,2262,2323,2205,1560,1745186945860856185
10525045,2268,2336,2245,1427,1745186945860856185
10526045,2272,2376,2252,1387,1745186945860856185
10527045,2273,2415,2237,1398,1745186945860856185
10528045,2251,2448,2198,1411,1745186945860856185
10529045,2220,2495,2162,1439,1745186945860856185
10530045,2186,2546,2141,1520,1745186945860856185
10531045,2152,2587,2139,1661,1745186945860856185
10532045,2120,2602,2148,1852,1745186945860856185
10533045,2096,2541,2152,2066,1745186945860856185
10534046,2070,2442,2161,2312,1745186945860856185
10535046,2056,2365,2158,2554,1745186945860856185
10536046,2048,2320,2140,2728,1745186945860856185
10537046,2049,2304,2098,2826,1745186945860856185
10538046,2052,2313,2038,2864,1745186945860856185
10539046,2062,2346,1989,2898,1745186945860856185
10540046,2076,2392,1920,2888,1745186945860856185
10541046,2091,2412,1868,2833,1745186945860856185
10542046,2122,2456,1826,2603,1745186945860856185
10543046,2104,2478,1829,2364,1745186945860856185
10544046,2120,2552,1853,2169,1745186945860856185
10545046,2192,2561,1891,1868,1745186945860856185
10546047,2090,2556,1950,1736,1745186945860856185
10547047,2073,2570,2016,1691,1745186945860856185
10548047,2056,2582,2072,1740,1745186945860856185
10549047,2026,2586,2125,1861,1745186945860856185
10550047,2001,2585,2192,1965,1745186945860856185
10551047,1979,2571,2180,1990,1745186945860856185
10552047,1952,2537,2177,1992,1745186945860856185
10553047,1938,2504,2148,1962,1745186945860856185
10554047,1929,2463,2099,1891,1745186945860856185
10555047,1926,2416,2030,1798,1745186945860856185
10556047,1929,2371,1963,1714,1745186945860856185
10557047,1932,2329,1904,1644,1745186945860856185
10558048,1941,2294,1864,1597,1745186945860856185
10559048,1932,2277,1856,1557,1745186945860856185
10560048,1933,2278,1875,1535,1745186945860856185
10561048,1929,2290,1890,1533,1745186945860856185
10562048,1917,2301,1882,1553,1745186945860856185
10563048,1915,2307,1848,1587,1745186945860856185
10564048,1909,2305,1802,1642,1745186945860856185
10565048,1897,2301,1757,1732,1745186945860856185
10566048,1875,2294,1732,1903,1745186945860856185
10567048,1841,2279,1757,2145,1745186945860856185
10568048,1801,2250,1819,2387,1745186945860856185
10569048,1753,2198,1889,2557,1745186945860856185
10570049,1717,2129,1932,2617,1745186945860856185
10571049,1685,2024,1953,2583,1745186945860856185
10572049,1660,1917,1978,2467,1745186945860856185
10573049,1638,1797,2016,2315,1745186945860856185
10574049,1628,1681,2086,2172,1745186945860856185
10575049,1636,1578,2152,2052,1745186945921189748
10576049,1661,1514,2201,1969,1745186945921189748
10577049,1682,1494,2222,1946,1745186945921189748
10578049,1692,1535,2216,1949,1745186945921189748
10579049,1691,1587,2185,1930,1745186945921189748
10580049,1685,1595,2131,1895,1745186945921189748
10581049,1678,1553,2058,1859,1745186945921189748
10582050,1678,1511,1979,1835,1745186945921189748
10583050,1689,1511,1906,1815,1745186945921189748
10584050,1704,1535,1844,1753,1745186945921189748
10585050,1717,1543,1794,1626,1745186945921189748
10586050,1730,1560,1752,1502,1745186945921189748
10587050,1748,1586,1716,1452,1745186945921189748
10588050,1771,1619,1682,1535,1745186945921189748
10589050,1801,1637,1659,1733,1745186945921189748
10590050,1834,1617,1664,1972,1745186945921189748
10591050,1866,1566,1707,2170,1745186945921189748
10592050,1896,1520,1786,2286,1745186945921189748
10593050,1922,1468,1886,2328,1745186945921189748
10594051,1955,1427,1977,2305,1745186945921189748
10595051,2000,1403,2048,2217,1745186945921189748
10596051,2066,1378,2074,2048,1745186945921189748
10597051,2144,1320,2063,1836,1745186945921189748
10598051,2234,1212,2022,1606,1745186945921189748
10599051,2305,1085,1971,1424,1745186945921189748
10600051,2389,1088,1925,1349,1745186945921189748
10601053,2560,1308,1850,1307,1745186945921189748
10602051,2515,1539,1791,1428,1745186945921189748
10603051,2522,1772,1765,1598,1745186945921189748
10604051,2484,1968,1758,1748,1745186945921189748
10605051,2418,2093,1753,1813,1745186945921189748
10606052,2338,2158,1754,1837,1745186945921189748
10607052,2254,2126,1728,1865,1745186945921189748
10608052,2181,2101,1733,1938,1745186945921189748
10609052,2108,2072,1769,2012,1745186945921189748
10610052,2058,2044,1825,2059,1745186945921189748
10611052,2009,2037,1902,2062,1745186945921189748
10612052,1973,2043,1978,2026,1745186945921189748
10613052,1946,2044,2035,1966,1745186945921189748
10614052,1938,2038,2066,1870,1745186945921189748
10615052,1939,2034,2063,1757,1745186945921189748
10616052,1954,2041,2026,1648,1745186945921189748
10617052,1984,2062,1962,1561,1745186945921189748
10618053,2025,2097,1900,1520,1745186945921189748
10619053,2073,2145,1868,1515,1745186945921189748
10620053,2124,2206,1866,1529,1745186945921189748
10621053,2170,2269,1877,1544,1745186945921189748
10622053,2208,2336,1884,1582,1745186945921189748
10623053,2244,2402,1874,1641,1745186945921189748
10624053,2282,2469,1854,1708,1745186945921189748
10625053,2315,2526,1829,1778,1745186945921189748
10626053,2335,2565,1789,1850,1745186945921189748
10627053,2339,2603,1744,1904,1745186945921189748
10628053,2322,2629,1696,1906,1745186945921189748
10629053,2285,2654,1662,1877,1745186945921189748
10630054,2246,2684,1664,1826,1745186945921189748
10631054,2202,2713,1708,1749,1745186945921189748
10632054,2158,2739,1787,1658,1745186945921189748
10633054,2121,2752,1886,1574,1745186945994933606
10634054,2092,2754,1967,1508,1745186945994933606
10635054,2078,2761,2008,1432,1745186945994933606
10636054,2068,2750,1990,1338,1745186945994933606
10637054,2074,2737,1939,1269,1745186945994933606
10638054,2087,2741,1869,1243,1745186945994933606
10639054,2094,2768,1827,1267,1745186945994933606
10640054,2100,2828,1826,1325,1745186945994933606
10641054,2100,2900,1854,1389,1745186945994933606
10642055,2097,2968,1889,1451,1745186945994933606
10643055,2099,3040,1921,1469,1745186945994933606
10644055,2100,3114,1946,1370,1745186945994933606
10645055,2091,3201,1964,1174,1745186945994933606
10646055,2076,3320,1970,994,1745186945994933606
10647055,2057,3428,1971,889,1745186945994933606
10648055,2032,3478,1976,902,1745186945994933606
10649055,2004,3459,1982,1037,1745186945994933606
10650055,1972,3394,1988,1220,1745186945994933606
10651055,1941,3306,1985,1395,1745186945994933606
10652055,1917,3205,1968,1532,1745186945994933606
10653055,1901,3107,1946,1610,1745186945994933606
10654056,1886,3037,1915,1647,1745186945994933606
10655056,1874,2989,1883,1651,1745186945994933606
10656056,1859,2953,1858,1624,1745186945994933606
10657056,1869,2900,1798,1549,1745186945994933606
10658056,1834,2825,1792,1472,1745186945994933606
10659057,1822,2778,1760,1378,1745186945994933606
10660057,1806,2772,1744,1318,1745186945994933606
10661056,1841,2915,1756,1310,1745186945994933606
10662056,1768,2820,1765,1368,1745186945994933606
10663056,1747,2820,1830,1460,1745186945994933606
10664056,1725,2769,1913,1554,1745186945994933606
10665056,1694,2631,1999,1630,1745186945994933606
10666057,1659,2418,2083,1672,1745186945994933606
10667057,1620,2171,2118,1653,1745186945994933606
10668057,1581,2040,2130,1628,1745186945994933606
10669057,1537,2093,2136,1605,1745186945994933606
10670057,1507,2217,2152,1597,1745186945994933606
10671057,1462,2347,2182,1606,1745186945994933606
10672057,1416,2398,2211,1604,1745186945994933606
10673057,1371,2366,2233,1582,1745186945994933606
10674057,1343,2281,2240,1596,1745186945994933606
10675057,1326,2182,2236,1686,1745186945994933606
10676057,1321,2091,2210,1814,1745186945994933606
10677057,1321,2027,2171,1956,1745186945994933606
10678058,1330,1999,2136,2091,1745186945994933606
10679058,1340,1978,2122,2217,1745186945994933606
10680058,1356,1945,2124,2336,1745186945994933606
10681058,1372,1917,2145,2420,1745186945994933606
10682058,1392,1896,2169,2441,1745186945994933606
10683058,1414,1880,2203,2396,1745186945994933606
10684058,1430,1858,2256,2337,1745186945994933606
10685058,1444,1829,2330,2312,1745186945994933606
10686058,1448,1801,2422,2301,1745186945994933606
10687058,1445,1778,2521,2307,1745186945994933606
10688058,1440,1753,2569,2324,1745186945994933606
10689058,1436,1713,2559,2345,1745186945994933606
10690059,1434,1649,2476,2384,1745186945994933606
10691059,1433,1569,2357,2460,1745186946036921243
10692059,1433,1499,2228,2518,1745186946036921243
10693059,1438,1448,2102,2536,1745186946036921243
10694059,1454,1401,1996,2490,1745186946036921243
10695059,1466,1346,1933,2407,1745186946036921243
10696059,1488,1293,1917,2329,1745186946036921243
10697059,1512,1265,1932,2233,1745186946036921243
10698059,1535,1276,1956,2089,1745186946036921243
10699059,1557,1305,1965,1939,1745186946036921243
10700059,1584,1344,1945,1866,1745186946036921243
10701059,1614,1388,1904,1939,1745186946036921243
10702060,1646,1437,1871,2184,1745186946036921243
10703060,1679,1488,1861,2518,1745186946036921243
10704060,1713,1534,1876,2799,1745186946036921243
10705060,1746,1561,1908,2993,1745186946036921243
10706060,1774,1577,1960,3066,1745186946036921243
10707060,1797,1576,2032,3029,1745186946036921243
10708060,1814,1556,2109,2906,1745186946036921243
10709060,1827,1535,2184,2736,1745186946036921243
10710060,1837,1498,2249,2601,1745186946036921243
10711060,1846,1457,2299,2571,1745186946036921243
10712060,1858,1413,2328,2620,1745186946036921243
10713060,1869,1370,2333,2698,1745186946036921243
10714061,1884,1330,2310,2781,1745186946036921243
10715061,1901,1301,2262,2803,1745186946036921243
10716061,1921,1282,2203,2785,1745186946036921243
10717061,1962,1282,2147,2744,1745186946036921243
10718061,1979,1286,2077,2650,1745186946036921243
10719062,2009,1317,2062,2586,1745186946036921243
10720061,2074,1388,2109,2532,1745186946036921243
10721061,2140,1430,2153,2495,1745186946036921243
10722061,2158,1489,2090,2485,1745186946036921243
10723061,2126,1524,2115,2389,1745186946036921243
10724061,2122,1563,2020,2377,1745186946036921243
10725061,2207,1635,1945,2536,1745186946036921243
10726062,2156,1705,1938,2600,1745186946036921243
10727062,2128,1666,1820,2644,1745186946036921243
10728062,2126,1701,1798,2740,1745186946036921243
10729062,2141,1700,1769,2769,1745186946036921243
10730062,2158,1704,1746,2757,1745186946036921243
10731062,2173,1692,1726,2706,1745186946036921243
10732062,2190,1689,1716,2626,1745186946036921243
10733062,2189,1636,1719,2558,1745186946036921243
10734062,2187,1618,1769,2598,1745186946036921243
10735062,2273,1618,1821,2483,1745186946036921243
10736062,2177,1601,1914,2510,1745186946036921243
10737062,2194,1627,2028,2517,1745186946036921243
10738063,2216,1650,2104,2489,1745186946036921243
10739063,2229,1676,2123,2504,1745186946036921243
10740063,2247,1748,2109,2601,1745186946036921243
10741063,2280,1753,2042,2689,1745186946036921243
10742063,2301,1789,1981,2698,1745186946036921243
10743063,2322,1826,1921,2577,1745186946036921243
10744063,2337,1853,1868,2398,1745186946036921243
10745063,2351,1877,1835,2252,1745186946036921243
10746063,2365,1898,1841,2234,1745186946036921243
10747063,2376,1920,1889,2334,1745186946036921243
10748063,2384,1929,1977,2490,1745186946036921243
10749063,2384,1916,2089,2627,1745186946094596133
10750064,2370,1897,2187,2712,1745186946094596133
10751064,2322,1888,2252,2736,1745186946094596133
10752064,2243,1897,2261,2723,1745186946094596133
10753064,2161,1884,2218,2685,1745186946094596133
10754064,2091,1846,2137,2629,1745186946094596133
10755064,2044,1796,2041,2555,1745186946094596133
10756064,2030,1747,1947,2470,1745186946094596133
10757064,2044,1709,1876,2443,1745186946094596133
10758064,2083,1707,1825,2530,1745186946094596133
10759064,2128,1738,1798,2702,1745186946094596133
10760064,2170,1789,1790,2893,1745186946094596133
10761064,2219,1850,1797,3019,1745186946094596133
10762065,2276,1906,1833,3052,1745186946094596133
10763065,2336,1951,1898,2989,1745186946094596133
10764065,2382,1993,2003,2778,1745186946094596133
10765065,2418,2029,2134,2465,1745186946094596133
10766065,2441,2061,2235,2151,1745186946094596133
10767065,2456,2076,2272,1903,1745186946094596133
10768065,2476,2070,2241,1761,1745186946094596133
10769065,2493,2048,2161,1682,1745186946094596133
10770065,2511,2009,2063,1656,1745186946094596133
10771065,2535,1966,1971,1721,1745186946094596133
10772065,2560,1930,1909,1882,1745186946094596133
10773066,2593,1907,1884,2085,1745186946094596133
10774066,2624,1872,1877,2264,1745186946094596133
10775066,2657,1854,1904,2467,1745186946094596133
10776066,2711,1848,1944,2741,1745186946094596133
10777066,2842,1858,1990,2893,1745186946094596133
10778066,2757,1840,1994,3058,1745186946094596133
10779066,2763,1854,1992,3138,1745186946094596133
10780066,2778,1874,1977,3112,1745186946094596133
10781066,2795,1893,1951,2978,1745186946094596133
10782066,2821,1899,1924,2786,1745186946094596133
10783066,2841,1890,1896,2608,1745186946094596133
10784066,2860,1880,1853,2512,1745186946094596133
10785066,2882,1857,1799,2507,1745186946094596133
10786067,2906,1826,1749,2564,1745186946094596133
10787067,2936,1793,1724,2631,1745186946094596133
10788067,2971,1752,1714,2654,1745186946094596133
10789067,2987,1708,1714,2626,1745186946094596133
10790067,2970,1673,1702,2597,1745186946094596133
10791067,2911,1641,1691,2593,1745186946094596133
10792067,2829,1624,1684,2614,1745186946094596133
10793067,2763,1626,1697,2604,1745186946094596133
10794067,2678,1635,1749,2623,1745186946094596133
10795067,2630,1667,1842,2613,1745186946094596133
10796067,2579,1716,1953,2564,1745186946094596133
10797067,2536,1777,2059,2481,1745186946094596133
10798068,2491,1844,2145,2361,1745186946094596133
10799068,2453,1926,2205,2241,1745186946094596133
10800068,2446,2020,2221,2122,1745186946094596133
10801068,2461,2118,2195,2013,1745186946094596133
10802068,2485,2212,2138,1922,1745186946094596133
10803068,2506,2298,2066,1870,1745186946094596133
10804069,2512,2373,1995,1891,1745186946094596133
10805068,2515,2439,1941,1974,1745186946094596133
10806069,2511,2483,1901,2050,1745186946094596133
10807068,2501,2508,1861,2064,1745186946157229623
10808068,2474,2509,1812,2027,1745186946157229623
10809068,2433,2491,1764,1995,1745186946157229623
10810069,2386,2458,1733,1980,1745186946157229623
10811069,2343,2413,1739,1980,1745186946157229623
10812069,2304,2357,1794,1978,1745186946157229623
10813069,2285,2300,1883,1985,1745186946157229623
10814069,2286,2241,1985,2014,1745186946157229623
10815069,2309,2191,2080,2064,1745186946157229623
10816069,2345,2151,2158,2100,1745186946157229623
10817069,2386,2124,2208,2107,1745186946157229623
10818069,2422,2105,2236,2100,1745186946157229623
10819069,2458,2101,2256,2086,1745186946157229623
10820069,2486,2109,2276,2062,1745186946157229623
10821069,2504,2127,2281,2022,1745186946157229623
10822070,2507,2148,2272,1995,1745186946157229623
10823070,2493,2173,2250,1992,1745186946157229623
10824070,2450,2197,2218,2004,1745186946157229623
10825070,2368,2213,2181,2024,1745186946157229623
10826070,2256,2220,2161,2028,1745186946157229623
10827070,2144,2219,2181,2021,1745186946157229623
10828070,2040,2206,2238,2002,1745186946157229623
10829070,1953,2179,2318,1965,1745186946157229623
10830070,1889,2148,2385,1907,1745186946157229623
10831070,1852,2108,2414,1853,1745186946157229623
10832070,1856,2065,2397,1790,1745186946157229623
10833071,1875,2024,2312,1768,1745186946157229623
10834071,1933,2005,2255,1822,1745186946157229623
10835071,2010,1976,2026,1728,1745186946157229623
10836071,2059,1958,1911,1696,1745186946157229623
10837071,2140,1968,1857,1647,1745186946157229623
10838071,2227,1995,1860,1570,1745186946157229623
10839071,2297,2028,1909,1509,1745186946157229623
10840071,2363,2076,1992,1461,1745186946157229623
10841071,2428,2121,2059,1421,1745186946157229623
10842071,2490,2170,2085,1339,1745186946157229623
10843071,2524,2206,2058,1262,1745186946157229623
10844071,2536,2235,1994,1236,1745186946157229623
10845071,2547,2258,1925,1287,1745186946157229623
10846072,2529,2270,1877,1404,1745186946157229623
10847072,2491,2279,1888,1556,1745186946157229623
10848072,2452,2280,1965,1725,1745186946157229623
10849072,2410,2268,2101,1865,1745186946157229623
10850072,2377,2240,2249,1979,1745186946157229623
10851072,2334,2203,2365,2074,1745186946157229623
10852072,2277,2161,2422,2142,1745186946157229623
10853072,2199,2121,2413,2179,1745186946157229623
10854072,2118,2089,2349,2177,1745186946157229623
10855072,2049,2060,2259,2139,1745186946157229623
10856072,1998,2043,2168,2101,1745186946157229623
10857072,1979,2050,2098,2073,1745186946157229623
10858073,1982,2073,2049,2035,1745186946157229623
10859073,2001,2112,2019,1984,1745186946157229623
10860073,2025,2160,2020,1916,1745186946157229623
10861073,2060,2210,2050,1834,1745186946157229623
10862073,2095,2259,2107,1742,1745186946157229623
10863073,2123,2300,2168,1653,1745186946157229623
10864073,2146,2330,2215,1571,1745186946157229623
10865073,2173,2345,2237,1509,1745186946214404569
10866073,2200,2347,2237,1471,1745186946214404569
10867073,2227,2338,2218,1468,1745186946214404569
10868073,2246,2314,2176,1489,1745186946214404569
10869073,2253,2284,2124,1520,1745186946214404569
10870074,2237,2246,2070,1547,1745186946214404569
10871074,2198,2203,2020,1584,1745186946214404569
10872074,2153,2153,1986,1611,1745186946214404569
10873074,2104,2105,1966,1636,1745186946214404569
10874074,2061,2065,1964,1666,1745186946214404569
10875074,2024,2034,1971,1691,1745186946214404569
10876074,1999,2020,1972,1672,1745186946214404569
10877074,1986,2017,1958,1587,1745186946214404569
10878074,1979,2024,1925,1497,1745186946214404569
10879074,1985,2048,1884,1437,1745186946214404569
10880074,1995,2077,1850,1453,1745186946214404569
10881074,2005,2113,1841,1531,1745186946214404569
10882075,2020,2152,1866,1620,1745186946214404569
10883075,2028,2192,1910,1694,1745186946214404569
10884075,2028,2225,1986,1732,1745186946214404569
10885075,2020,2252,2102,1749,1745186946214404569
10886075,2013,2273,2242,1750,1745186946214404569
10887075,2008,2286,2385,1753,1745186946214404569
10888075,2008,2289,2490,1778,1745186946214404569
10889075,2002,2275,2549,1827,1745186946214404569
10890076,1989,2258,2559,1869,1745186946214404569
10891075,1945,2217,2520,1876,1745186946214404569
10892075,1903,2178,2468,1832,1745186946214404569
10893075,1877,2133,2378,1713,1745186946214404569
10894076,1847,2085,2320,1615,1745186946214404569
10895076,1841,2053,2265,1565,1745186946214404569
10896076,1844,2028,2208,1581,1745186946214404569
10897076,1903,2113,2164,1658,1745186946214404569
10898076,1912,2035,2067,1728,1745186946214404569
10899076,1975,2061,1983,1774,1745186946214404569
10900076,2064,2085,1908,1758,1745186946214404569
10901076,2165,2105,1849,1675,1745186946214404569
10902076,2259,2109,1811,1602,1745186946214404569
10903076,2350,2121,1805,1547,1745186946214404569
10904076,2385,2099,1832,1572,1745186946214404569
10905076,2408,2080,1870,1713,1745186946214404569
10906077,2398,2056,1894,1930,1745186946214404569
10907077,2356,2013,1884,2161,1745186946214404569
10908077,2305,1967,1838,2351,1745186946214404569
10909077,2252,1914,1776,2459,1745186946214404569
10910077,2217,1860,1706,2395,1745186946214404569
10911077,2196,1805,1668,2142,1745186946214404569
10912077,2176,1757,1697,1801,1745186946214404569
10913077,2146,1718,1798,1526,1745186946214404569
10914077,2115,1697,1950,1434,1745186946214404569
10915077,2084,1701,2131,1551,1745186946214404569
10916077,2058,1730,2290,1785,1745186946214404569
10917077,2032,1780,2397,2021,1745186946214404569
10918078,2012,1843,2436,2233,1745186946214404569
10919078,1997,1915,2418,2405,1745186946214404569
10920078,1986,1987,2359,2516,1745186946214404569
10921078,1977,2058,2294,2539,1745186946214404569
10922078,1957,2126,2263,2474,1745186946214404569
10923078,1939,2188,2275,2359,1745186946269377453
10924078,1919,2238,2309,2248,1745186946269377453
10925078,1892,2275,2341,2181,1745186946269377453
10926078,1862,2299,2350,2156,1745186946269377453
10927078,1824,2304,2336,2160,1745186946269377453
10928078,1782,2294,2304,2155,1745186946269377453
10929078,1747,2274,2268,2122,1745186946269377453
10930079,1724,2244,2246,2062,1745186946269377453
10931079,1720,2208,2230,2004,1745186946269377453
10932079,1740,2170,2208,1989,1745186946269377453
10933079,1777,2129,2152,2030,1745186946269377453
10934079,1828,2093,2065,2117,1745186946269377453
10935079,1888,2064,1954,2180,1745186946269377453
10936079,1947,2042,1842,2180,1745186946269377453
10937079,2002,2034,1737,2138,1745186946269377453
10938079,2053,2044,1650,2056,1745186946269377453
10939079,2069,2074,1628,1953,1745186946269377453
10940079,2089,2115,1708,1842,1745186946269377453
10941079,2096,2149,1856,1714,1745186946269377453
10942080,2102,2182,2002,1574,1745186946269377453
10943080,2097,2198,2088,1476,1745186946269377453
10944080,2095,2209,2116,1439,1745186946269377453
10945080,2095,2217,2100,1425,1745186946269377453
10946080,2092,2214,2060,1416,1745186946269377453
10947080,2083,2202,2018,1443,1745186946269377453
10948080,2067,2182,1997,1530,1745186946269377453
10949080,2040,2161,2011,1664,1745186946269377453
10950080,2006,2141,2090,1810,1745186946269377453
10951080,1984,2133,2258,1980,1745186946269377453
10952080,1954,2099,2333,1990,1745186946269377453
10953080,1903,2045,2288,2035,1745186946269377453
10954081,1882,2101,2416,2131,1745186946269377453
10955081,1849,1992,2325,2176,1745186946269377453
10956081,1827,1984,2330,2243,1745186946269377453
10957081,1829,1995,2317,2297,1745186946269377453
10958081,1843,2019,2275,2318,1745186946269377453
10959081,1852,2061,2225,2330,1745186946269377453
10960081,1869,2115,2180,2272,1745186946269377453
10961081,1868,2154,2141,2224,1745186946269377453
10962081,1875,2204,2125,2186,1745186946269377453
10963081,1884,2250,2119,2171,1745186946269377453
10964081,1888,2282,2093,2189,1745186946269377453
10965081,1889,2301,2043,2218,1745186946269377453
10966082,1890,2304,1979,2245,1745186946269377453
10967082,1890,2296,1914,2277,1745186946269377453
10968082,1891,2267,1887,2282,1745186946269377453
10969082,1882,2230,1939,2225,1745186946269377453
10970082,1878,2184,2035,2105,1745186946269377453
10971082,1873,2122,2088,1980,1745186946269377453
10972082,1865,2056,2094,1904,1745186946269377453
10973082,1851,1993,2060,1876,1745186946269377453
10974082,1825,1950,2040,1902,1745186946269377453
10975082,1801,1928,2049,1970,1745186946269377453
10976082,1778,1923,2076,2006,1745186946269377453
10977082,1766,1936,2112,1923,1745186946269377453
10978083,1766,1960,2134,1765,1745186946269377453
10979083,1775,1997,2138,1620,1745186946269377453
10980083,1790,2037,2114,1535,1745186946269377453
10981083,1806,2084,2075,1535,1745186946331158242
10982083,1823,2128,2034,1607,1745186946331158242
10983083,1837,2166,2010,1711,1745186946331158242
10984083,1852,2197,2018,1808,1745186946331158242
10985083,1865,2212,2068,1889,1745186946331158242
10986083,1878,2214,2143,1954,1745186946331158242
10987083,1891,2206,2228,2004,1745186946331158242
10988083,1897,2189,2302,2051,1745186946331158242
10989083,1904,2161,2355,2081,1745186946331158242
10990084,1901,2124,2380,2100,1745186946331158242
10991084,1893,2081,2400,2110,1745186946331158242
10992084,1882,2033,2429,2115,1745186946331158242
10993084,1871,1988,2475,2124,1745186946331158242
10994084,1858,1953,2520,2155,1745186946331158242
10995084,1851,1929,2536,2241,1745186946331158242
10996084,1849,1914,2482,2353,1745186946331158242
10997084,1853,1911,2377,2442,1745186946331158242
10998084,1860,1917,2229,2490,1745186946331158242
10999084,1869,1933,2073,2452,1745186946331158242
11000084,1877,1954,1928,2302,1745186946331158242
11001084,1876,1979,1826,2092,1745186946331158242
11002085,1869,2003,1748,1885,1745186946331158242
11003085,1853,2022,1673,1699,1745186946331158242
11004085,1833,2042,1614,1558,1745186946331158242
11005085,1813,2061,1586,1478,1745186946331158242
11006085,1800,2077,1578,1421,1745186946331158242
11007086,1798,2085,1581,1378,1745186946331158242
11008085,1784,2080,1582,1373,1745186946331158242
11009085,1776,2076,1598,1467,1745186946331158242
11010085,1834,2068,1610,1501,1745186946331158242
11011086,1740,2026,1656,1621,1745186946331158242
11012085,1730,2010,1731,1749,1745186946331158242
11013085,1728,1994,1791,1855,1745186946331158242
11014086,1730,1980,1829,1954,1745186946331158242
11015086,1746,1970,1845,1997,1745186946331158242
11016086,1737,1966,1849,2035,1745186946331158242
11017086,1745,1977,1853,2048,1745186946331158242
11018086,1756,2005,1860,2025,1745186946331158242
11019086,1763,2045,1876,1977,1745186946331158242
11020086,1772,2093,1901,1881,1745186946331158242
11021086,1782,2142,1932,1766,1745186946331158242
11022086,1795,2188,1955,1657,1745186946331158242
11023086,1808,2232,1965,1576,1745186946331158242
11024086,1818,2268,1962,1520,1745186946331158242
11025086,1826,2289,1949,1478,1745186946331158242
11026087,1835,2297,1938,1473,1745186946331158242
11027087,1840,2285,1928,1521,1745186946331158242
11028087,1845,2264,1932,1638,1745186946331158242
11029087,1843,2230,1960,1790,1745186946331158242
11030087,1838,2192,2000,1899,1745186946331158242
11031087,1829,2150,2038,1917,1745186946331158242
11032087,1817,2102,2065,1889,1745186946331158242
11033087,1800,2053,2075,1893,1745186946331158242
11034087,1787,2003,2073,2002,1745186946331158242
11035088,1786,1964,2057,2196,1745186946331158242
11036087,1787,1939,2042,2393,1745186946331158242
11037087,1797,1929,2060,2544,1745186946331158242
11038088,1810,1938,2123,2620,1745186946331158242
11039088,1824,1965,2246,2612,1745186946396532333
11040088,1841,2003,2400,2498,1745186946396532333
11041088,1857,2050,2528,2331,1745186946396532333
11042088,1862,2088,2593,2180,1745186946396532333
11043088,1873,2121,2604,2080,1745186946396532333
11044088,1883,2146,2558,2022,1745186946396532333
11045088,1889,2153,2446,1988,1745186946396532333
11046088,1882,2145,2310,1971,1745186946396532333
11047088,1873,2133,2185,1949,1745186946396532333
11048088,1857,2101,2077,1916,1745186946396532333
11049088,1835,2060,1992,1878,1745186946396532333
11050089,1817,2008,1917,1850,1745186946396532333
11051089,1805,1952,1844,1812,1745186946396532333
11052089,1802,1893,1779,1773,1745186946396532333
11053089,1803,1840,1737,1761,1745186946396532333
11054089,1812,1796,1715,1786,1745186946396532333
11055089,1827,1765,1720,1820,1745186946396532333
11056089,1844,1749,1742,1859,1745186946396532333
11057089,1866,1753,1785,1878,1745186946396532333
11058089,1890,1777,1851,1922,1745186946396532333
11059089,1912,1822,1921,1947,1745186946396532333
11060089,1933,1877,1980,1963,1745186946396532333
11061089,1949,1937,2020,1961,1745186946396532333
11062090,1965,1993,2030,1953,1745186946396532333
11063090,1976,2042,2016,1950,1745186946396532333
11064090,1985,2080,1982,1951,1745186946396532333
11065090,1990,2112,1982,1952,1745186946396532333
11066090,1971,2109,1909,1932,1745186946396532333
11067090,1999,2118,1884,1922,1745186946396532333
11068090,2001,2112,1865,1921,1745186946396532333
11069091,2002,2094,1860,1985,1745186946396532333
11070090,2008,2085,1860,2112,1745186946396532333
11071090,2069,2074,1864,2269,1745186946396532333
11072090,1972,1993,1881,2380,1745186946396532333
11073090,1966,1957,1934,2409,1745186946396532333
11074091,1962,1924,1985,2351,1745186946396532333
11075091,1966,1898,2027,2281,1745186946396532333
11076091,1976,1924,2056,2259,1745186946396532333
11077091,1989,1886,2044,2253,1745186946396532333
11078091,1998,1904,2035,2251,1745186946396532333
11079091,1998,1948,2053,2216,1745186946396532333
11080091,2009,2005,2092,2163,1745186946396532333
11081091,2024,2072,2112,2101,1745186946396532333
11082091,2042,2129,2101,2031,1745186946396532333
11083091,2068,2179,2068,1969,1745186946396532333
11084091,2089,2219,2034,1926,1745186946396532333
11085091,2105,2248,2021,1922,1745186946396532333
11086092,2121,2261,2034,1942,1745186946396532333
11087092,2128,2264,2058,1949,1745186946396532333
11088092,2132,2246,2081,1902,1745186946396532333
11089092,2138,2212,2102,1830,1745186946396532333
11090092,2139,2168,2114,1782,1745186946396532333
11091092,2134,2120,2120,1801,1745186946396532333
11092092,2130,2064,2120,1864,1745186946396532333
11093092,2123,2006,2112,1912,1745186946396532333
11094092,2115,1948,2092,1935,1745186946396532333
11095092,2113,1897,2065,1970,1745186946396532333
11096092,2112,1860,2038,2028,1745186946396532333
11097092,2113,1843,2016,2089,1745186946447112183
11098093,2114,1843,2001,2135,1745186946447112183
11099093,2116,1861,1993,2149,1745186946447112183
11100093,2119,1885,1985,2148,1745186946447112183
11101093,2117,1921,1988,2173,1745186946447112183
11102093,2116,1963,2003,2214,1745186946447112183
11103093,2113,2003,2016,2269,1745186946447112183
11104093,2109,2031,2030,2368,1745186946447112183
11105093,2104,2052,2049,2510,1745186946447112183
11106093,2096,2067,2093,2648,1745186946447112183
11107093,2081,2073,2170,2765,1745186946447112183
11108093,2059,2070,2267,2825,1745186946447112183
11109093,2035,2058,2358,2795,1745186946447112183
11110094,2010,2042,2423,2668,1745186946447112183
11111094,1988,2014,2440,2521,1745186946447112183
11112094,1973,1978,2413,2404,1745186946447112183
11113094,1966,1940,2363,2332,1745186946447112183
11114094,1970,1904,2308,2296,1745186946447112183
11115094,1982,1878,2256,2272,1745186946447112183
11116094,2006,1868,2198,2244,1745186946447112183
11117094,2033,1871,2137,2207,1745186946447112183
11118094,2065,1890,2070,2169,1745186946447112183
11119094,2096,1920,1990,2137,1745186946447112183
11120094,2136,1964,1909,2120,1745186946447112183
11121094,2169,2014,1836,2110,1745186946447112183
11122095,2196,2069,1780,2109,1745186946447112183
11123095,2214,2116,1745,2106,1745186946447112183
11124096,2227,2156,1728,2098,1745186946447112183
11125095,2212,2178,1721,2093,1745186946447112183
11126095,2198,2194,1748,2106,1745186946447112183
11127095,2188,2193,1772,2089,1745186946447112183
11128095,2170,2185,1811,2098,1745186946447112183
11129095,2152,2168,1842,2132,1745186946447112183
11130095,2136,2144,1865,2184,1745186946447112183
11131095,2124,2102,1869,2238,1745186946447112183
11132095,2110,2058,1865,2255,1745186946447112183
11133095,2102,2003,1863,2209,1745186946447112183
11134096,2097,1949,1867,2120,1745186946447112183
11135096,2094,1905,1913,2130,1745186946447112183
11136096,2113,1887,1929,2048,1745186946447112183
11137096,2089,1844,1865,2084,1745186946447112183
11138096,2076,1860,1890,2166,1745186946447112183
11139096,2077,1897,1937,2226,1745186946447112183
11140096,2074,1941,1985,2293,1745186946447112183
11141096,2066,1994,2011,2441,1745186946447112183
11142096,2061,2050,1999,2472,1745186946447112183
11143097,2049,2082,1964,2521,1745186946447112183
11144096,2040,2118,1955,2501,1745186946447112183
11145098,2051,2147,1969,2397,1745186946447112183
11146097,2060,2164,2029,2250,1745186946447112183
11147097,2076,2180,2126,2109,1745186946447112183
11148097,2085,2180,2232,1996,1745186946447112183
11149097,2096,2170,2310,1940,1745186946447112183
11150097,2104,2152,2349,1929,1745186946447112183
11151097,2104,2121,2348,1941,1745186946447112183
11152097,2097,2076,2325,1969,1745186946447112183
11153097,2077,2025,2285,2005,1745186946447112183
11154097,2056,1972,2234,2041,1745186946447112183
11155097,2030,1924,2178,2082,1745186946509245366
11156097,2012,1890,2122,2114,1745186946509245366
11157097,2009,1878,2067,2146,1745186946509245366
11158098,2022,1888,2022,2182,1745186946509245366
11159098,2050,1923,1984,2234,1745186946509245366
11160098,2081,1969,1934,2291,1745186946509245366
11161098,2117,2025,1882,2354,1745186946509245366
11162098,2148,2086,1825,2427,1745186946509245366
11163098,2179,2140,1782,2472,1745186946509245366
11164098,2207,2184,1758,2442,1745186946509245366
11165098,2224,2212,1770,2344,1745186946509245366
11166098,2229,2222,1796,2256,1745186946509245366
11167098,2226,2217,1814,2226,1745186946509245366
11168098,2216,2190,1834,2258,1745186946509245366
11169098,2197,2156,1859,2306,1745186946509245366
11170099,2180,2118,1896,2328,1745186946509245366
11171099,2163,2079,1949,2297,1745186946509245366
11172099,2135,2040,2028,2251,1745186946509245366
11173099,2108,2002,2108,2236,1745186946509245366
11174099,2088,1969,2166,2240,1745186946509245366
11175099,2084,1945,2204,2234,1745186946509245366
11176099,2083,1934,2229,2181,1745186946509245366
11177099,2081,1939,2250,2061,1745186946509245366
11178099,2074,1966,2283,1906,1745186946509245366
11179099,2064,2009,2318,1777,1745186946509245366
11180099,2058,2063,2338,1698,1745186946509245366
11181099,2051,2115,2313,1669,1745186946509245366
11182100,2050,2168,2254,1678,1745186946509245366
11183100,2048,2210,2161,1701,1745186946509245366
11184100,2048,2246,2097,1741,1745186946509245366
11185100,2064,2288,2065,1760,1745186946509245366
11186100,2061,2288,2050,1733,1745186946509245366
11187100,2146,2391,2069,1652,1745186946509245366
11188100,2077,2276,2024,1537,1745186946509245366
11189100,2077,2252,1986,1455,1745186946509245366
11190100,2084,2219,1931,1448,1745186946509245366
11191100,2082,2174,1872,1574,1745186946509245366
11192100,2077,2132,1839,1826,1745186946509245366
11193100,2077,2089,1837,2118,1745186946509245366
11194101,2073,2050,1857,2390,1745186946509245366
11195101,2073,2016,1861,2589,1745186946509245366
11196101,2075,1989,1852,2721,1745186946509245366
11197101,2078,1976,1841,2780,1745186946509245366
11198101,2081,1979,1839,2784,1745186946509245366
11199101,2091,2005,1852,2765,1745186946509245366
11200101,2098,2053,1890,2662,1745186946509245366
11201101,2084,2093,1957,2566,1745186946509245366
11202101,2081,2149,2044,2469,1745186946509245366
11203101,2070,2211,2124,2341,1745186946509245366
11204101,2057,2253,2180,2198,1745186946509245366
11205101,2036,2300,2217,2069,1745186946509245366
11206102,2017,2337,2238,1997,1745186946509245366
11207102,2001,2358,2240,2033,1745186946509245366
11208102,1997,2362,2205,2165,1745186946509245366
11209102,1989,2348,2137,2321,1745186946509245366
11210102,1995,2321,2061,2441,1745186946509245366
11211102,2003,2286,1989,2465,1745186946509245366
11212102,2010,2238,1958,2354,1745186946509245366
11213102,2018,2178,1955,2174,1745186946562486598
11214102,2028,2105,1959,2008,1745186946562486598
11215102,2036,2028,1955,1906,1745186946562486598
11216102,2043,1952,1958,1873,1745186946562486598
11217102,2042,1896,1976,1885,1745186946562486598
11218103,2050,1865,1997,1922,1745186946562486598
11219103,2056,1859,2032,1955,1745186946562486598
11220103,2064,1878,2070,1969,1745186946562486598
11221103,2074,1911,2106,1936,1745186946562486598
11222103,2084,1951,2130,1884,1745186946562486598
11223103,2098,1996,2143,1838,1745186946562486598
11224103,2112,2032,2152,1811,1745186946562486598
11225103,2121,2057,2152,1800,1745186946562486598
11226103,2124,2069,2142,1817,1745186946562486598
11227103,2121,2061,2119,1853,1745186946562486598
11228103,2114,2035,2085,1905,1745186946562486598
11229103,2101,2003,2038,1963,1745186946562486598
11230104,2086,1962,2000,2017,1745186946562486598
11231104,2073,1917,1966,2068,1745186946562486598
11232104,2059,1867,1951,2140,1745186946562486598
11233104,2052,1817,1946,2229,1745186946562486598
11234104,2049,1769,1939,2307,1745186946562486598
11235104,2052,1732,1927,2350,1745186946562486598
11236104,2058,1709,1923,2336,1745186946562486598
11237104,2073,1706,1947,2269,1745186946562486598
11238104,2091,1720,1992,2186,1745186946562486598
11239104,2113,1754,2042,2112,1745186946562486598
11240104,2138,1794,2076,2066,1745186946562486598
11241104,2176,1836,2088,2017,1745186946562486598
11242105,2179,1873,2078,1986,1745186946562486598
11243105,2189,1921,2086,1967,1745186946562486598
11244105,2185,1951,2074,1937,1745186946562486598
11245105,2169,1986,2078,1925,1745186946562486598
11246105,2146,2018,2075,1918,1745186946562486598
11247105,2123,2042,2064,1923,1745186946562486598
11248105,2097,2056,2053,1939,1745186946562486598
11249105,2082,2147,2062,1979,1745186946562486598
11250105,2059,2038,2027,2026,1745186946562486598
11251105,2036,2016,2022,2104,1745186946562486598
11252105,2033,1994,2013,2188,1745186946562486598
11253105,2029,1960,2008,2247,1745186946562486598
11254106,2029,1927,2020,2273,1745186946562486598
11255106,2036,1893,2022,2232,1745186946562486598
11256106,2034,1869,2032,2188,1745186946562486598
11257106,2053,1868,2026,2136,1745186946562486598
11258106,2074,1878,2013,2093,1745186946562486598
11259106,2102,1910,1998,2080,1745186946562486598
11260106,2135,1955,1986,2108,1745186946562486598
11261106,2170,2003,1962,2158,1745186946562486598
11262106,2201,2056,1931,2228,1745186946562486598
11263106,2222,2101,1900,2304,1745186946562486598
11264106,2233,2136,1881,2353,1745186946562486598
11265106,2236,2162,1901,2340,1745186946562486598
11266107,2233,2175,1941,2266,1745186946562486598
11267107,2232,2170,1968,2134,1745186946562486598
11268107,2229,2155,1987,1965,1745186946562486598
11269107,2223,2131,2000,1805,1745186946562486598
11270107,2208,2097,2018,1707,1745186946562486598
11271107,2191,2058,2036,1659,1745186946628707816
11272107,2176,2009,2048,1632,1745186946628707816
11273107,2166,1958,2043,1624,1745186946628707816
11274107,2164,1913,2032,1630,1745186946628707816
11275107,2170,1872,2019,1670,1745186946628707816
11276107,2177,1848,2015,1747,1745186946628707816
11277107,2178,1842,2020,1853,1745186946628707816
11278108,2175,1855,2038,1966,1745186946628707816
11279108,2170,1888,2077,2068,1745186946628707816
11280108,2170,1935,2103,2139,1745186946628707816
11281108,2167,1986,2097,2164,1745186946628707816
11282108,2169,2034,2061,2149,1745186946628707816
11283108,2168,2077,2005,2100,1745186946628707816
11284108,2166,2112,1947,2019,1745186946628707816
11285108,2160,2133,1913,1921,1745186946628707816
11286108,2150,2146,1903,1858,1745186946628707816
11287108,2148,2147,1913,1837,1745186946628707816
11288108,2147,2132,1941,1849,1745186946628707816
11289108,2144,2109,1992,1885,1745186946628707816
11290109,2140,2077,2058,1954,1745186946628707816
11291109,2131,2035,2114,2053,1745186946628707816
11292109,2122,1989,2155,2152,1745186946628707816
11293109,2113,1946,2173,2243,1745186946628707816
11294109,2100,1908,2180,2305,1745186946628707816
11295109,2097,1880,2177,2339,1745186946628707816
11296109,2094,1865,2164,2333,1745186946628707816
11297109,2101,1859,2144,2298,1745186946628707816
11298109,2111,1869,2123,2240,1745186946628707816
11299109,2126,1901,2108,2171,1745186946628707816
11300109,2136,1928,2085,2100,1745186946628707816
11301109,2153,1970,2082,2058,1745186946628707816
11302110,2182,2089,2090,2022,1745186946628707816
11303110,2177,2057,2093,2021,1745186946628707816
11304110,2194,2093,1989,1985,1745186946628707816
11305110,2181,2122,1971,1973,1745186946628707816
11306110,2184,2146,1976,1958,1745186946628707816
11307110,2189,2160,2004,1947,1745186946628707816
11308110,2193,2162,2049,1941,1745186946628707816
11309110,2185,2153,2090,1969,1745186946628707816
11310110,2195,2142,2122,1982,1745186946628707816
11311110,2164,2102,2136,2026,1745186946628707816
11312110,2155,2068,2143,2086,1745186946628707816
11313110,2147,2027,2140,2153,1745186946628707816
11314111,2139,1988,2139,2224,1745186946628707816
11315111,2139,1953,2120,2291,1745186946628707816
11316111,2150,1930,2105,2325,1745186946628707816
11317111,2172,1922,2090,2334,1745186946628707816
11318111,2196,1931,2086,2305,1745186946628707816
11319111,2226,1963,2089,2251,1745186946628707816
11320111,2250,2005,2091,2177,1745186946628707816
11321111,2273,2057,2086,2117,1745186946628707816
11322111,2291,2109,2076,2078,1745186946628707816
11323111,2300,2160,2069,2059,1745186946628707816
11324111,2298,2205,2065,2051,1745186946628707816
11325111,2290,2242,2064,2057,1745186946628707816
11326112,2278,2270,2059,2060,1745186946628707816
11327112,2261,2282,2061,2058,1745186946628707816
11328112,2236,2274,2074,2048,1745186946628707816
11329112,2211,2252,2084,2044,1745186946679212094
11330112,2184,2213,2090,2064,1745186946679212094
11331112,2159,2169,2083,2106,1745186946679212094
11332112,2129,2118,2067,2170,1745186946679212094
11333112,2105,2064,2048,2225,1745186946679212094
11334112,2082,2012,2022,2244,1745186946679212094
11335112,2066,1971,2004,2209,1745186946679212094
11336112,2062,1938,1994,2121,1745186946679212094
11337112,2063,1913,1998,2008,1745186946679212094
11338113,2070,1897,1993,1907,1745186946679212094
11339113,2093,1891,1995,1838,1745186946679212094
11340113,2115,1898,1998,1809,1745186946679212094
11341113,2136,1915,2018,1819,1745186946679212094
11342113,2155,1947,2050,1838,1745186946679212094
11343113,2165,1986,2089,1854,1745186946679212094
11344113,2164,2020,2121,1853,1745186946679212094
11345113,2157,2056,2137,1866,1745186946679212094
11346113,2149,2084,2141,1869,1745186946679212094
11347113,2136,2098,2138,1892,1745186946679212094
11348113,2126,2107,2129,1921,1745186946679212094
11349113,2113,2100,2118,1956,1745186946679212094
11350114,2102,2083,2116,1984,1745186946679212094
11351114,2085,2057,2117,1989,1745186946679212094
11352114,2066,2019,2121,1987,1745186946679212094
11353114,2042,1974,2118,1992,1745186946679212094
11354114,2028,1930,2101,2009,1745186946679212094
11355114,2017,1891,2074,2021,1745186946679212094
11356114,2014,1862,2032,1971,1745186946679212094
11357114,2014,1847,1980,1842,1745186946679212094
11358114,2023,1852,1913,1661,1745186946679212094
11359114,2029,1881,1849,1521,1745186946679212094
11360116,2054,1942,1812,1462,1745186946679212094
11361114,2056,1995,1769,1533,1745186946679212094
11362115,2058,2090,1797,1727,1745186946679212094
11363115,2062,2202,1898,1947,1745186946679212094
11364115,2051,2312,2031,2124,1745186946679212094
11365115,2050,2405,2158,2194,1745186946679212094
11366115,2015,2443,2253,2241,1745186946679212094
11367115,1998,2460,2317,2277,1745186946679212094
11368115,1993,2514,2384,2328,1745186946679212094
11369115,1984,2412,2313,2341,1745186946679212094
11370115,1972,2380,2282,2362,1745186946679212094
11371115,1968,2344,2249,2357,1745186946679212094
11372115,1954,2284,2225,2317,1745186946679212094
11373115,1934,2213,2213,2317,1745186946679212094
11374116,1926,2154,2209,2205,1745186946679212094
11375116,1898,2095,2204,2162,1745186946679212094
11376116,1888,2069,2177,2142,1745186946679212094
11377116,1886,2072,2157,2125,1745186946679212094
11378116,1888,2094,2128,2091,1745186946679212094
11379116,1897,2133,2096,2050,1745186946679212094
11380116,1912,2190,2061,1990,1745186946679212094
11381116,1922,2253,2043,1933,1745186946679212094
11382116,1931,2322,2038,1888,1745186946679212094
11383116,1931,2392,2064,1853,1745186946679212094
11384116,1916,2451,2104,1828,1745186946679212094
11385116,1889,2508,2158,1824,1745186946679212094
11386117,1854,2556,2203,1848,1745186946679212094
11387117,1819,2580,2226,1890,1745186946739603730
11388117,1784,2593,2221,1938,1745186946739603730
11389117,1755,2593,2205,1984,1745186946739603730
11390117,1724,2574,2190,2029,1745186946739603730
11391117,1692,2556,2175,2065,1745186946739603730
11392117,1661,2516,2164,2077,1745186946739603730
11393117,1629,2479,2156,2076,1745186946739603730
11394117,1605,2443,2153,2072,1745186946739603730
11395117,1586,2414,2144,2059,1745186946739603730
11396117,1579,2395,2144,2041,1745186946739603730
11397117,1582,2385,2144,2027,1745186946739603730
11398118,1593,2389,2146,2005,1745186946739603730
11399118,1612,2412,2152,1979,1745186946739603730
11400118,1635,2444,2163,1951,1745186946739603730
11401118,1656,2482,2171,1933,1745186946739603730
11402118,1676,2523,2161,1926,1745186946739603730
11403118,1689,2555,2123,1931,1745186946739603730
11404118,1697,2576,2050,1936,1745186946739603730
11405118,1696,2593,1966,1933,1745186946739603730
11406118,1692,2601,1924,1915,1745186946739603730
11407118,1676,2604,1965,1905,1745186946739603730
11408118,1654,2598,2073,1912,1745186946739603730
11409118,1632,2581,2166,1939,1745186946739603730
11410119,1612,2559,2216,1974,1745186946739603730
11411119,1597,2513,2204,1989,1745186946739603730
11412119,1582,2459,2158,1970,1745186946739603730
11413119,1572,2396,2094,1907,1745186946739603730
11414119,1564,2336,2027,1838,1745186946739603730
11415119,1562,2282,1971,1775,1745186946739603730
11416121,1576,2245,1930,1717,1745186946739603730
11417119,1583,2216,1906,1677,1745186946739603730
11418119,1605,2218,1902,1671,1745186946739603730
11419119,1706,2238,1882,1653,1745186946739603730
11420120,1654,2230,1851,1659,1745186946739603730
11421119,1682,2265,1835,1670,1745186946739603730
11422120,1710,2303,1819,1688,1745186946739603730
11423120,1733,2340,1802,1699,1745186946739603730
11424120,1748,2370,1786,1724,1745186946739603730
11425120,1768,2410,1766,1726,1745186946739603730
11426120,1750,2398,1743,1753,1745186946739603730
11427120,1745,2400,1732,1800,1745186946739603730
11428120,1744,2384,1726,1837,1745186946739603730
11429120,1734,2351,1715,1858,1745186946739603730
11430120,1722,2300,1688,1836,1745186946739603730
11431120,1706,2235,1645,1749,1745186946739603730
11432120,1686,2162,1601,1621,1745186946739603730
11433120,1670,2086,1573,1535,1745186946739603730
11434121,1658,2017,1580,1490,1745186946739603730
11435121,1645,1969,1627,1531,1745186946739603730
11436121,1635,1945,1708,1649,1745186946739603730
11437121,1635,1952,1787,1820,1745186946739603730
11438121,1641,1986,1850,1979,1745186946739603730
11439121,1657,2027,1916,2109,1745186946739603730
11440121,1688,2058,1956,2195,1745186946739603730
11441121,1723,2072,1976,2243,1745186946739603730
11442121,1757,2082,1992,2240,1745186946739603730
11443121,1785,2092,2033,2179,1745186946739603730
11444121,1801,2102,2108,2093,1745186946739603730
11445121,1809,2113,2201,1998,1745186946796192796
11446122,1809,2123,2267,1926,1745186946796192796
11447122,1810,2124,2285,1874,1745186946796192796
11448122,1808,2116,2248,1853,1745186946796192796
11449122,1806,2097,2194,1862,1745186946796192796
11450122,1801,2072,2123,1917,1745186946796192796
11451122,1797,2029,2051,2008,1745186946796192796
11452122,1793,1984,1997,2099,1745186946796192796
11453122,1791,1926,1966,2176,1745186946796192796
11454122,1789,1870,1958,2221,1745186946796192796
11455122,1784,1811,1954,2219,1745186946796192796
11456122,1773,1765,1961,2207,1745186946796192796
11457122,1780,1734,1950,2187,1745186946796192796
11458123,1792,1715,1955,2147,1745186946796192796
11459123,1807,1713,2048,2095,1745186946796192796
11460123,1821,1732,2210,2020,1745186946796192796
11461123,1837,1761,2379,1936,1745186946796192796
11462123,1858,1798,2497,1857,1745186946796192796
11463123,1877,1839,2559,1799,1745186946796192796
11464123,1902,1877,2584,1773,1745186946796192796
11465123,1926,1909,2570,1779,1745186946796192796
11466123,1948,1934,2555,1802,1745186946796192796
11467123,1962,1948,2515,1829,1745186946796192796
11468123,1976,1950,2474,1861,1745186946796192796
11469123,1990,1939,2424,1895,1745186946796192796
11470124,2003,1909,2368,1929,1745186946796192796
11471124,2016,1873,2320,1958,1745186946796192796
11472124,2025,1827,2281,1985,1745186946796192796
11473124,2034,1779,2253,2012,1745186946796192796
11474124,2038,1728,2252,2048,1745186946796192796
11475125,2041,1693,2246,2097,1745186946796192796
11476124,2058,1642,2229,2104,1745186946796192796
11477124,2057,1646,2205,2123,1745186946796192796
11478124,2070,1649,2173,2149,1745186946796192796
11479126,2116,1670,2196,2202,1745186946796192796
11480125,2138,1690,2051,2197,1745186946796192796
11481126,2171,1727,2008,2200,1745186946796192796
11482125,2226,1770,1987,2176,1745186946796192796
11483125,2276,1814,1981,2128,1745186946796192796
11484125,2314,1853,1994,2050,1745186946796192796
11485125,2337,1938,2025,1968,1745186946796192796
11486125,2345,1917,2041,1898,1745186946796192796
11487125,2332,1937,2078,1897,1745186946796192796
11488125,2325,1953,2117,1951,1745186946796192796
11489125,2316,1950,2146,2026,1745186946796192796
11490125,2313,1939,2158,2112,1745186946796192796
11491125,2306,1912,2164,2178,1745186946796192796
11492125,2297,1873,2155,2228,1745186946796192796
11493125,2285,1827,2141,2249,1745186946796192796
11494126,2273,1782,2116,2244,1745186946796192796
11495126,2259,1745,2084,2226,1745186946796192796
11496126,2255,1713,2057,2209,1745186946796192796
11497126,2259,1699,2029,2190,1745186946796192796
11498126,2269,1697,2004,2185,1745186946796192796
11499126,2282,1713,1993,2179,1745186946796192796
11500126,2287,1745,2000,2177,1745186946796192796
11501126,2288,1783,2038,2176,1745186946796192796
11502126,2277,1826,2092,2182,1745186946796192796
11503126,2259,1868,2115,2204,1745186946869704885
11504126,2237,1901,2085,2255,1745186946869704885
11505126,2214,1921,1992,2338,1745186946869704885
11506127,2200,1924,1864,2435,1745186946869704885
11507127,2188,1912,1759,2520,1745186946869704885
11508127,2177,1886,1733,2576,1745186946869704885
11509127,2156,1852,1801,2604,1745186946869704885
11510127,2132,1815,1946,2578,1745186946869704885
11511127,2105,1776,2121,2493,1745186946869704885
11512127,2082,1730,2273,2400,1745186946869704885
11513127,2065,1686,2401,2338,1745186946869704885
11514127,2057,1650,2509,2306,1745186946869704885
11515127,2058,1619,2549,2261,1745186946869704885
11516127,2068,1602,2520,2191,1745186946869704885
11517127,2077,1601,2437,2105,1745186946869704885
11518128,2089,1612,2332,2016,1745186946869704885
11519128,2112,1642,2229,1945,1745186946869704885
11520128,2144,1680,2147,1899,1745186946869704885
11521128,2182,1725,2088,1886,1745186946869704885
11522128,2224,1773,2048,1897,1745186946869704885
11523128,2258,1824,2018,1923,1745186946869704885
11524128,2283,1868,2004,1958,1745186946869704885
11525128,2299,1905,2000,1992,1745186946869704885
11526128,2305,1930,1996,2029,1745186946869704885
11527128,2302,1945,1994,2066,1745186946869704885
11528128,2288,1947,1988,2102,1745186946869704885
11529128,2274,1939,1988,2129,1745186946869704885
11530129,2261,1917,1968,2153,1745186946869704885
11531129,2245,1888,1924,2190,1745186946869704885
11532129,2230,1845,1862,2254,1745186946869704885
11533130,2226,1795,1805,2336,1745186946869704885
11534129,2203,1738,1774,2429,1745186946869704885
11535129,2193,1701,1792,2541,1745186946869704885
11536129,2280,1666,1830,2578,1745186946869704885
11537129,2186,1618,1891,2602,1745186946869704885
11538129,2194,1621,1962,2563,1745186946869704885
11539129,2202,1646,2056,2491,1745186946869704885
11540129,2217,1690,2160,2392,1745186946869704885
11541129,2230,1748,2249,2293,1745186946869704885
11542130,2251,1809,2280,2216,1745186946869704885
11543130,2266,1869,2269,2166,1745186946869704885
11544130,2284,1920,2259,2174,1745186946869704885
11545130,2313,1973,2266,2137,1745186946869704885
11546130,2286,1995,2286,2140,1745186946869704885
11547130,2284,2018,2297,2152,1745186946869704885
11548130,2276,2034,2279,2160,1745186946869704885
11549130,2262,2040,2231,2167,1745186946869704885
11550130,2248,2035,2154,2189,1745186946869704885
11551130,2241,2016,2052,2242,1745186946869704885
11552130,2217,1984,1957,2307,1745186946869704885
11553130,2205,1946,1881,2369,1745186946869704885
11554131,2187,1900,1851,2402,1745186946869704885
11555131,2173,1857,1883,2412,1745186946869704885
11556131,2161,1828,1960,2392,1745186946869704885
11557131,2160,1805,2030,2354,1745186946869704885
11558131,2160,1803,2089,2321,1745186946869704885
11559131,2173,1820,2132,2291,1745186946869704885
11560131,2200,1856,2148,2276,1745186946869704885
11561131,2227,1899,2114,2268,1745186946918832093
11562131,2250,1948,1979,2266,1745186946918832093
11563131,2269,2000,1762,2270,1745186946918832093
11564131,2277,2048,1536,2250,1745186946918832093
11565131,2282,2085,1387,2179,1745186946918832093
11566132,2271,2122,1353,2075,1745186946918832093
11567132,2256,2146,1464,1964,1745186946918832093
11568132,2224,2162,1674,1867,1745186946918832093
11569132,2194,2171,1899,1801,1745186946918832093
11570132,2157,2165,2083,1773,1745186946918832093
11571132,2129,2149,2209,1769,1745186946918832093
11572132,2104,2121,2274,1788,1745186946918832093
11573132,2085,2080,2307,1821,1745186946918832093
11574132,2068,2031,2316,1866,1745186946918832093
11575132,2061,1990,2300,1920,1745186946918832093
11576132,2063,1957,2267,1976,1745186946918832093
11577132,2069,1939,2225,2034,1745186946918832093
11578133,2085,1939,2172,2091,1745186946918832093
11579133,2112,1958,2092,2151,1745186946918832093
11580133,2135,1992,2000,2209,1745186946918832093
11581133,2159,2032,1917,2259,1745186946918832093
11582133,2178,2076,1854,2283,1745186946918832093
11583133,2196,2117,1841,2269,1745186946918832093
11584133,2204,2157,1885,2203,1745186946918832093
11585133,2213,2194,1971,2100,1745186946918832093
11586133,2212,2221,2051,1992,1745186946918832093
11587133,2220,2233,2110,1888,1745186946918832093
11588133,2216,2235,2166,1805,1745186946918832093
11589133,2206,2228,2201,1762,1745186946918832093
11590134,2188,2198,2198,1769,1745186946918832093
11591134,2163,2161,2154,1813,1745186946918832093
11592134,2137,2112,2095,1884,1745186946918832093
11593134,2106,2060,2059,1978,1745186946918832093
11594134,2081,2010,2050,2086,1745186946918832093
11595134,2062,1976,2126,2197,1745186946918832093
11596134,2028,1944,2104,2264,1745186946918832093
11597134,2062,1931,2145,2309,1745186946918832093
