timestamp,emg0,emg1,emg2,emg3,pkt_time_ns
5198873,2041,1910,2114,1997,1745154327399868863
5199871,2041,1874,2114,1991,1745154327399868863
5200871,2050,1861,2096,1990,1745154327399868863
5201871,2056,1872,2070,1998,1745154327399868863
5202871,2061,1897,2038,2010,1745154327399868863
5203871,2065,1944,2014,2024,1745154327399868863
5204871,2068,1999,1996,2045,1745154327399868863
5205871,2068,2060,1977,2068,1745154327399868863
5206871,2065,2118,1960,2090,1745154327399868863
5207871,2059,2170,1944,2104,1745154327399868863
5208871,2053,2208,1934,2113,1745154327399868863
5209871,2045,2225,1932,2114,1745154327399868863
5210871,2037,2222,1939,2112,1745154327399868863
5211872,2030,2206,1956,2105,1745154327399868863
5212872,2023,2172,1979,2096,1745154327399868863
5213872,2018,2130,2006,2082,1745154327399868863
5214872,2012,2081,2035,2072,1745154327399868863
5215872,2010,2024,2067,2059,1745154327399868863
5216872,2011,1968,2100,2041,1745154327399868863
5217872,2012,1918,2126,2024,1745154327399868863
5218872,2015,1883,2141,2009,1745154327399868863
5219872,2021,1871,2147,1997,1745154327399868863
5220872,2029,1880,2140,1991,1745154327399868863
5221872,2037,1906,2132,1986,1745154327399868863
5222872,2048,1942,2125,1987,1745154327399868863
5223873,2053,1980,2118,1990,1745154327399868863
5224873,2058,2014,2115,1998,1745154327399868863
5225873,2059,2051,2101,2009,1745154327399868863
5226873,2059,2086,2081,2022,1745154327399868863
5227873,2057,2124,2053,2038,1745154327399868863
5228873,2055,2156,2022,2059,1745154327399868863
5229873,2049,2179,2002,2072,1745154327399868863
5230873,2042,2189,1986,2081,1745154327399868863
5231873,2036,2186,1986,2086,1745154327399868863
5232873,2030,2172,1993,2089,1745154327399868863
5233873,2027,2148,2008,2090,1745154327399868863
5234873,2025,2120,2027,2087,1745154327399868863
5235874,2024,2082,2050,2078,1745154327399868863
5236874,2024,2036,2078,2065,1745154327399868863
5237874,2025,1989,2104,2040,1745154327399868863
5238874,2029,1948,2120,2022,1745154327399868863
5239874,2035,1920,2132,2005,1745154327399868863
5240874,2041,1907,2132,1995,1745154327399868863
5241874,2049,1916,2124,1989,1745154327399868863
5242874,2053,1937,2112,1986,1745154327399868863
5243874,2059,1967,2101,1988,1745154327399868863
5244874,2062,2002,2091,1988,1745154327399868863
5245874,2064,2042,2080,1994,1745154327399868863
5246874,2064,2089,2062,2008,1745154327399868863
5247875,2062,2133,2040,2027,1745154327399868863
5248875,2057,2164,2025,2049,1745154327399868863
5249875,2052,2185,2011,2065,1745154327399868863
5250875,2042,2189,2005,2076,1745154327399868863
5251875,2036,2173,2001,2082,1745154327399868863
5252875,2030,2140,2013,2080,1745154327399868863
5253875,2026,2099,2025,2072,1745154327399868863
5254875,2026,2059,2042,2062,1745154327399868863
5255875,2029,2016,2061,2048,1745154327399868863
5256875,2034,1975,2082,2030,1745154327453191813
5257875,2041,1938,2107,2013,1745154327453191813
5258876,2050,1921,2124,2000,1745154327453191813
5259876,2056,1921,2134,1989,1745154327453191813
5260876,2060,1939,2136,1982,1745154327453191813
5261876,2063,1969,2125,1984,1745154327453191813
5262876,2064,2002,2125,1987,1745154327453191813
5263877,2059,2034,2121,1993,1745154327453191813
5264876,2065,2068,2115,2000,1745154327453191813
5265876,2064,2101,2093,2012,1745154327453191813
5266876,2058,2133,2073,2026,1745154327453191813
5267876,2060,2166,2043,2038,1745154327453191813
5268876,2081,2184,2017,2108,1745154327453191813
5269876,2081,2224,2034,2112,1745154327453191813
5270876,2060,2194,2012,2115,1745154327453191813
5271877,2041,2160,2001,2120,1745154327453191813
5272877,2025,2089,1958,2076,1745154327453191813
5273877,1972,2061,1972,2082,1745154327453191813
5274877,1984,2052,2002,2082,1745154327453191813
5275877,1995,2048,2035,2070,1745154327453191813
5276877,2001,2033,2075,2052,1745154327453191813
5277877,2006,2011,2110,2026,1745154327453191813
5278877,2010,1996,2149,2012,1745154327453191813
5279877,2019,1982,2180,2001,1745154327453191813
5280877,2068,1979,2192,1990,1745154327453191813
5281877,2033,1985,2186,1989,1745154327453191813
5282877,2041,2001,2166,1997,1745154327453191813
5283878,2056,2027,2130,2004,1745154327453191813
5284878,2060,2058,2089,2014,1745154327453191813
5285878,2066,2090,2048,2025,1745154327453191813
5286878,2067,2120,2009,2034,1745154327453191813
5287878,2066,2160,1981,2048,1745154327453191813
5288878,2064,2190,1964,2061,1745154327453191813
5289878,2060,2205,1957,2069,1745154327453191813
5290878,2054,2213,1962,2120,1745154327453191813
5291878,2051,2194,1978,2078,1745154327453191813
5292878,2037,2169,1989,2070,1745154327453191813
5293878,2029,2144,2003,2066,1745154327453191813
5294879,2025,2110,2021,2060,1745154327453191813
5295879,2030,2074,2040,2053,1745154327453191813
5296879,2029,2032,2065,2042,1745154327453191813
5297879,2032,1990,2088,2031,1745154327453191813
5298879,2036,1956,2104,2021,1745154327453191813
5299879,2043,1934,2117,2012,1745154327453191813
5300879,2052,1928,2122,2005,1745154327453191813
5301879,2061,1936,2124,2004,1745154327453191813
5302879,2066,1954,2124,2005,1745154327453191813
5303879,2071,1979,2121,2010,1745154327453191813
5304879,2073,2009,2106,2014,1745154327453191813
5305879,2077,2042,2084,2022,1745154327453191813
5306879,2077,2082,2058,2037,1745154327453191813
5307880,2070,2120,2034,2053,1745154327453191813
5308880,2068,2153,2013,2067,1745154327453191813
5309880,2061,2172,2001,2081,1745154327453191813
5310880,2057,2176,1993,2088,1745154327453191813
5311880,2051,2170,1987,2093,1745154327453191813
5312880,2043,2150,1986,2093,1745154327453191813
5313880,2039,2131,1982,2088,1745154327453191813
5314880,2035,2105,1989,2084,1745154327526384686
5315880,2035,2073,1993,2076,1745154327526384686
5316880,2036,2031,2010,2064,1745154327526384686
5317880,2041,1989,2022,2048,1745154327526384686
5318880,2049,1960,2035,2028,1745154327526384686
5319881,2052,1939,2040,2012,1745154327526384686
5320881,2062,1936,2042,2001,1745154327526384686
5321881,2068,1947,2050,1999,1745154327526384686
5322882,2078,1964,2059,1995,1745154327526384686
5323881,2079,1992,2059,2003,1745154327526384686
5324881,2093,2029,2061,2066,1745154327526384686
5325881,2142,2100,2075,2077,1745154327526384686
5326883,2088,2086,1990,2057,1745154327526384686
5327881,2076,2129,1965,2095,1745154327526384686
5328881,2084,2163,1954,2121,1745154327526384686
5329881,2091,2186,1948,2133,1745154327526384686
5330882,2101,2189,1949,2173,1745154327526384686
5331882,2085,2181,1960,2133,1745154327526384686
5332882,2077,2147,1981,2120,1745154327526384686
5333882,2073,2120,2013,2109,1745154327526384686
5334882,2070,2081,2037,2096,1745154327526384686
5335882,2070,2042,2072,2076,1745154327526384686
5336882,2072,2001,2107,2061,1745154327526384686
5337882,2076,1964,2142,2039,1745154327526384686
5338882,2082,1934,2173,2017,1745154327526384686
5339882,2086,1909,2195,2009,1745154327526384686
5340882,2098,1913,2215,2009,1745154327526384686
5341882,2112,1924,2218,2009,1745154327526384686
5342882,2123,1946,2221,2016,1745154327526384686
5343883,2139,1973,2208,2022,1745154327526384686
5344883,2157,2005,2189,2035,1745154327526384686
5345883,2173,2042,2153,2048,1745154327526384686
5346883,2189,2080,2111,2064,1745154327526384686
5347883,2201,2117,2059,2078,1745154327526384686
5348883,2212,2150,2008,2090,1745154327526384686
5349883,2229,2168,1970,2096,1745154327526384686
5350883,2245,2171,1950,2100,1745154327526384686
5351883,2258,2160,1956,2100,1745154327526384686
5352883,2271,2138,1989,2097,1745154327526384686
5353883,2276,2112,2038,2094,1745154327526384686
5354883,2271,2083,2098,2094,1745154327526384686
5355884,2253,2048,2164,2091,1745154327526384686
5356884,2227,2009,2227,2084,1745154327526384686
5357884,2188,1973,2280,2080,1745154327526384686
5358884,2142,1944,2314,2073,1745154327526384686
5359884,2096,1929,2322,2064,1745154327526384686
5360884,2049,1926,2297,2052,1745154327526384686
5361884,1997,1937,2241,2042,1745154327526384686
5362884,1949,1958,2171,2041,1745154327526384686
5363885,1909,1986,2092,2033,1745154327526384686
5364884,1869,2013,2011,2026,1745154327526384686
5365884,1835,2054,1922,2021,1745154327526384686
5366884,1809,2096,1837,2021,1745154327526384686
5367885,1791,2142,1760,2035,1745154327526384686
5368885,1782,2178,1700,2043,1745154327526384686
5369885,1779,2202,1667,2059,1745154327526384686
5370885,1782,2214,1664,2073,1745154327526384686
5371885,1795,2207,1688,2084,1745154327526384686
5372885,1811,2188,1740,2094,1745154327570545897
5373885,1837,2161,1801,2095,1745154327570545897
5374885,1877,2125,1866,2094,1745154327570545897
5375885,1936,2082,1931,2086,1745154327570545897
5376885,2004,2029,1995,2069,1745154327570545897
5377885,2080,1981,2051,2057,1745154327570545897
5378885,2153,1943,2099,2043,1745154327570545897
5379886,2211,1915,2144,2032,1745154327570545897
5380886,2260,1909,2184,2019,1745154327570545897
5381886,2286,1906,2224,2014,1745154327570545897
5382886,2309,1920,2249,2020,1745154327570545897
5383886,2337,1945,2272,2014,1745154327570545897
5384886,2344,1971,2278,2017,1745154327570545897
5385886,2356,2010,2302,2027,1745154327570545897
5386886,2399,2053,2308,2038,1745154327570545897
5387886,2325,2102,2305,2056,1745154327570545897
5388886,2290,2126,2294,2065,1745154327570545897
5389886,2235,2144,2275,2068,1745154327570545897
5390886,2164,2141,2221,2068,1745154327570545897
5391887,2093,2134,2184,2112,1745154327570545897
5392887,2016,2110,2100,2070,1745154327570545897
5393887,1941,2078,2066,2116,1745154327570545897
5394887,1877,2050,1948,2056,1745154327570545897
5395887,1809,2008,1878,2048,1745154327570545897
5396887,1763,1972,1841,2044,1745154327570545897
5397887,1730,1933,1813,2083,1745154327570545897
5398887,1746,1944,1827,2065,1745154327570545897
5399887,1714,1884,1761,2009,1745154327570545897
5400887,1664,1875,1747,2013,1745154327570545897
5401887,1672,1893,1744,2022,1745154327570545897
5402887,1690,1918,1746,2027,1745154327570545897
5403888,1746,1954,1755,2034,1745154327570545897
5404888,1745,1976,1761,2034,1745154327570545897
5405888,1781,2016,1770,2050,1745154327570545897
5406888,1822,2056,1773,2061,1745154327570545897
5407888,1864,2093,1772,2069,1745154327570545897
5408888,1902,2121,1784,2078,1745154327570545897
5409888,1944,2136,1806,2081,1745154327570545897
5410888,1979,2136,1838,2080,1745154327570545897
5411888,2017,2118,1872,2076,1745154327570545897
5412888,2052,2090,1902,2070,1745154327570545897
5413888,2082,2051,1933,2062,1745154327570545897
5414888,2110,2008,1957,2059,1745154327570545897
5415889,2128,1963,1972,2050,1745154327570545897
5416889,2139,1921,1978,2041,1745154327570545897
5417889,2145,1875,1979,2027,1745154327570545897
5418889,2142,1840,1984,2013,1745154327570545897
5419889,2133,1819,1990,2001,1745154327570545897
5420889,2119,1813,2019,1996,1745154327570545897
5421889,2099,1814,2073,1993,1745154327570545897
5422889,2077,1830,2144,1997,1745154327570545897
5423889,2056,1851,2219,2002,1745154327570545897
5424889,2030,1881,2280,2010,1745154327570545897
5425889,2010,1920,2300,2019,1745154327570545897
5426889,1998,1971,2268,2027,1745154327570545897
5427890,1996,2027,2194,2034,1745154327570545897
5428890,2004,2074,2096,2040,1745154327570545897
5429890,2008,2110,2006,2048,1745154327570545897
5430890,2036,2128,1941,2056,1745154327632133251
5431890,2061,2131,1903,2067,1745154327632133251
5432890,2082,2123,1885,2073,1745154327632133251
5433890,2104,2110,1888,2080,1745154327632133251
5434890,2116,2090,1905,2081,1745154327632133251
5435890,2123,2066,1944,2074,1745154327632133251
5436890,2122,2031,1999,2062,1745154327632133251
5437890,2110,1999,2061,2039,1745154327632133251
5438890,2090,1971,2120,2015,1745154327632133251
5439891,2062,1968,2167,2004,1745154327632133251
5440891,2037,1968,2195,1994,1745154327632133251
5441891,2005,1990,2209,1985,1745154327632133251
5442891,2016,2055,2254,2024,1745154327632133251
5443891,1966,2042,2184,1976,1745154327632133251
5444891,1879,2066,2146,1990,1745154327632133251
5445891,1849,2122,2122,2012,1745154327632133251
5446891,1830,2178,2087,2032,1745154327632133251
5447893,1816,2234,2048,2085,1745154327632133251
5448892,1811,2278,2014,2070,1745154327632133251
5449891,1805,2300,1995,2086,1745154327632133251
5450891,1818,2316,1994,2096,1745154327632133251
5451892,1830,2312,2012,2096,1745154327632133251
5452892,1849,2300,2043,2093,1745154327632133251
5453892,1875,2277,2070,2090,1745154327632133251
5454892,1910,2253,2088,2078,1745154327632133251
5455892,1952,2216,2096,2065,1745154327632133251
5456892,1996,2174,2085,2048,1745154327632133251
5457892,2048,2126,2060,2029,1745154327632133251
5458892,2106,2082,2020,2015,1745154327632133251
5459892,2164,2049,1982,2006,1745154327632133251
5460892,2224,2026,1949,2004,1745154327632133251
5461892,2280,2023,1925,2002,1745154327632133251
5462892,2323,2026,1909,2004,1745154327632133251
5463893,2363,2040,1900,2007,1745154327632133251
5464893,2390,2060,1897,2007,1745154327632133251
5465893,2409,2086,1893,2015,1745154327632133251
5466893,2414,2122,1891,2022,1745154327632133251
5467893,2399,2160,1888,2034,1745154327632133251
5468893,2369,2201,1890,2048,1745154327632133251
5469893,2318,2235,1892,2060,1745154327632133251
5470893,2257,2254,1902,2075,1745154327632133251
5471893,2184,2259,1918,2089,1745154327632133251
5472893,2108,2252,1930,2101,1745154327632133251
5473893,2032,2235,1946,2109,1745154327632133251
5474893,1963,2209,1963,2113,1745154327632133251
5475894,1899,2173,1989,2106,1745154327632133251
5476894,1849,2124,2028,2092,1745154327632133251
5477894,1811,2075,2062,2073,1745154327632133251
5478894,1787,2029,2093,2054,1745154327632133251
5479894,1774,2000,2112,2040,1745154327632133251
5480894,1773,1990,2120,2034,1745154327632133251
5481894,1780,1998,2116,2035,1745154327632133251
5482894,1793,2017,2108,2038,1745154327632133251
5483894,1806,2049,2097,2045,1745154327632133251
5484894,1821,2084,2076,2054,1745154327632133251
5485894,1834,2126,2052,2066,1745154327632133251
5486894,1841,2175,2017,2094,1745154327632133251
5487895,1853,2224,1988,2134,1745154327632133251
5488895,1859,2265,1970,2181,1745154327686877855
5489895,1858,2293,1961,2220,1745154327686877855
5490895,1851,2307,1966,2246,1745154327686877855
5491895,1848,2306,1977,2266,1745154327686877855
5492895,1848,2293,2000,2266,1745154327686877855
5493895,1851,2271,2016,2248,1745154327686877855
5494895,1860,2241,2028,2213,1745154327686877855
5495895,1876,2201,2044,2167,1745154327686877855
5496895,1897,2148,2062,2108,1745154327686877855
5497895,1929,2094,2076,2043,1745154327686877855
5498896,1953,2044,2086,1989,1745154327686877855
5499896,1986,2008,2096,1955,1745154327686877855
5500896,2019,1976,2085,1921,1745154327686877855
5501896,2048,1973,2081,1915,1745154327686877855
5502896,2113,1984,2077,1908,1745154327686877855
5503896,2096,1988,2051,1954,1745154327686877855
5504896,2171,2059,2073,1955,1745154327686877855
5505896,2168,2049,1984,1929,1745154327686877855
5506896,2122,2081,1954,1963,1745154327686877855
5507896,2128,2131,1929,2006,1745154327686877855
5508896,2132,2170,1915,2040,1745154327686877855
5509896,2160,2203,1914,2065,1745154327686877855
5510896,2120,2198,1916,2078,1745154327686877855
5511897,2114,2196,1936,2096,1745154327686877855
5512897,2100,2175,1949,2110,1745154327686877855
5513897,2088,2146,1964,2134,1745154327686877855
5514897,2073,2110,1980,2164,1745154327686877855
5515897,2064,2070,2000,2196,1745154327686877855
5516897,2060,2024,2020,2228,1745154327686877855
5517897,2054,1984,2032,2248,1745154327686877855
5518897,2055,1958,2034,2246,1745154327686877855
5519897,2062,1946,2025,2227,1745154327686877855
5520897,2075,1952,2008,2195,1745154327686877855
5521897,2091,1973,1986,2153,1745154327686877855
5522897,2105,2009,1961,2113,1745154327686877855
5523898,2115,2052,1941,2082,1745154327686877855
5524898,2122,2091,1929,2066,1745154327686877855
5525898,2125,2134,1914,2059,1745154327686877855
5526898,2129,2178,1908,2065,1745154327686877855
5527898,2129,2210,1913,2068,1745154327686877855
5528898,2128,2232,1933,2062,1745154327686877855
5529898,2121,2230,1957,2048,1745154327686877855
5530898,2109,2213,1979,2022,1745154327686877855
5531898,2100,2184,2000,1997,1745154327686877855
5532898,2091,2145,2019,1974,1745154327686877855
5533898,2081,2107,2042,1953,1745154327686877855
5534898,2068,2066,2067,1936,1745154327686877855
5535899,2060,2028,2090,1923,1745154327686877855
5536899,2054,1995,2109,1915,1745154327686877855
5537899,2050,1946,2120,1909,1745154327686877855
5538899,2049,1920,2124,1910,1745154327686877855
5539899,2052,1904,2124,1925,1745154327686877855
5540899,2060,1899,2112,1960,1745154327686877855
5541899,2067,1916,2093,2009,1745154327686877855
5542899,2073,1943,2068,2065,1745154327686877855
5543899,2075,1958,2032,2126,1745154327686877855
5544899,2078,1980,1997,2190,1745154327686877855
5545899,2074,2008,1946,2248,1745154327686877855
5546899,2066,2053,1890,2291,1745154327747200794
5547900,2052,2109,1838,2314,1745154327747200794
5548900,2031,2164,1801,2317,1745154327747200794
5549900,2013,2203,1780,2307,1745154327747200794
5550900,1996,2220,1771,2290,1745154327747200794
5551900,1980,2222,1780,2268,1745154327747200794
5552900,1969,2212,1805,2245,1745154327747200794
5553900,1962,2180,1840,2208,1745154327747200794
5554900,1955,2125,1876,2156,1745154327747200794
5555900,1954,2062,1926,2090,1745154327747200794
5556900,1963,1985,1973,2011,1745154327747200794
5557900,1969,1925,2022,1938,1745154327747200794
5558901,1989,1889,2104,1905,1745154327747200794
5559901,2029,1902,2109,1807,1745154327747200794
5560901,1994,1863,2070,1773,1745154327747200794
5561901,2003,1891,2082,1768,1745154327747200794
5562901,2029,1931,2089,1787,1745154327747200794
5563901,2053,1972,2091,1819,1745154327747200794
5564901,2074,1993,2084,1858,1745154327747200794
5565901,2078,2024,2064,1913,1745154327747200794
5566901,2084,2083,2038,1966,1745154327747200794
5567901,2078,2140,2012,2002,1745154327747200794
5568901,2064,2199,1994,2022,1745154327747200794
5569901,2042,2239,1987,2028,1745154327747200794
5570901,2019,2261,1989,2024,1745154327747200794
5571902,1997,2267,2001,2018,1745154327747200794
5572902,1976,2250,2024,2014,1745154327747200794
5573902,1961,2192,2053,2013,1745154327747200794
5574902,1952,2113,2085,2018,1745154327747200794
5575902,1948,2025,2128,2027,1745154327747200794
5576902,1949,1947,2176,2039,1745154327747200794
5577902,1955,1888,2220,2048,1745154327747200794
5578902,1964,1859,2256,2054,1745154327747200794
5579902,1977,1843,2274,2058,1745154327747200794
5580902,1996,1842,2278,2056,1745154327747200794
5581902,2016,1861,2265,2038,1745154327747200794
5582902,2032,1895,2239,2021,1745154327747200794
5583903,2044,1932,2205,2011,1745154327747200794
5584903,2045,1974,2166,2029,1745154327747200794
5585903,2059,2021,2122,2070,1745154327747200794
5586903,2064,2088,2078,2121,1745154327747200794
5587903,2062,2154,2044,2165,1745154327747200794
5588903,2054,2211,2026,2200,1745154327747200794
5589903,2048,2250,2026,2217,1745154327747200794
5590903,2037,2259,2053,2224,1745154327747200794
5591903,2035,2252,2096,2218,1745154327747200794
5592903,2032,2232,2148,2201,1745154327747200794
5593903,2037,2199,2202,2179,1745154327747200794
5594903,2038,2164,2252,2157,1745154327747200794
5595904,2044,2115,2304,2134,1745154327747200794
5596904,2050,2064,2356,2090,1745154327747200794
5597904,2057,2022,2402,2036,1745154327747200794
5598904,2067,1976,2440,1981,1745154327747200794
5599904,2078,1930,2462,1923,1745154327747200794
5600904,2091,1890,2470,1866,1745154327747200794
5601904,2098,1863,2465,1813,1745154327747200794
5602904,2105,1853,2452,1782,1745154327747200794
5603904,2106,1861,2437,1771,1745154327747200794
5604904,2112,1873,2418,1781,1745154327800607754
5605904,2112,1889,2398,1796,1745154327800607754
5606904,2112,1917,2371,1826,1745154327800607754
5607905,2103,1954,2344,1875,1745154327800607754
5608905,2092,1986,2327,1932,1745154327800607754
5609905,2076,2006,2321,1997,1745154327800607754
5610905,2060,2012,2320,2057,1745154327800607754
5611905,2040,2005,2324,2101,1745154327800607754
5612905,2022,1981,2329,2129,1745154327800607754
5613905,2002,1945,2333,2138,1745154327800607754
5614906,1989,1894,2338,2115,1745154327800607754
5615905,1973,1835,2395,2086,1745154327800607754
5616905,1954,1782,2378,2038,1745154327800607754
5617906,1972,1725,2398,2005,1745154327800607754
5618906,1980,1686,2416,2012,1745154327800607754
5619906,2041,1649,2457,1986,1745154327800607754
5620906,2044,1582,2365,1928,1745154327800607754
5621906,2017,1581,2320,1926,1745154327800607754
5622906,2041,1627,2268,1923,1745154327800607754
5623906,2063,1688,2207,1914,1745154327800607754
5624906,2105,1748,2123,1906,1745154327800607754
5625906,2071,1813,2048,1906,1745154327800607754
5626906,2057,1883,1966,1928,1745154327800607754
5627906,2045,1950,1908,1952,1745154327800607754
5628906,2030,2002,1872,1978,1745154327800607754
5629906,2010,2035,1851,2003,1745154327800607754
5630906,1993,2042,1850,2029,1745154327800607754
5631907,1982,2028,1866,2054,1745154327800607754
5632907,1976,2013,1890,2069,1745154327800607754
5633907,1973,1996,1913,2072,1745154327800607754
5634907,1970,1982,1937,2056,1745154327800607754
5635907,1968,1964,1964,2022,1745154327800607754
5636907,1969,1947,1988,1987,1745154327800607754
5637907,1970,1926,2009,1954,1745154327800607754
5638907,1979,1917,2017,1938,1745154327800607754
5639907,1991,1914,2013,1936,1745154327800607754
5640907,2009,1917,1996,1947,1745154327800607754
5641907,2029,1930,1978,1963,1745154327800607754
5642907,2052,1950,1968,1978,1745154327800607754
5643908,2080,1978,1967,1986,1745154327800607754
5644908,2104,2015,1970,1988,1745154327800607754
5645908,2121,2066,1971,1987,1745154327800607754
5646908,2134,2128,1966,1995,1745154327800607754
5647908,2136,2188,1953,2004,1745154327800607754
5648908,2136,2237,1950,2013,1745154327800607754
5649908,2128,2271,1953,2025,1745154327800607754
5650908,2120,2284,1965,2052,1745154327800607754
5651908,2112,2278,1988,2091,1745154327800607754
5652908,2107,2259,2008,2127,1745154327800607754
5653908,2109,2229,2028,2155,1745154327800607754
5654908,2116,2200,2050,2164,1745154327800607754
5655909,2118,2165,2072,2162,1745154327800607754
5656909,2124,2127,2094,2150,1745154327800607754
5657909,2125,2090,2118,2134,1745154327800607754
5658909,2131,2067,2136,2114,1745154327800607754
5659909,2144,2061,2140,2088,1745154327800607754
5660909,2151,2073,2127,2058,1745154327800607754
5661909,2161,2100,2097,2026,1745154327800607754
5662909,2173,2138,2065,1996,1745154327867252718
5663909,2181,2180,2032,1976,1745154327867252718
5664909,2192,2224,2000,1969,1745154327867252718
5665909,2202,2270,1964,1978,1745154327867252718
5666909,2213,2308,1934,2003,1745154327867252718
5667910,2232,2336,1920,2029,1745154327867252718
5668910,2248,2347,1916,2053,1745154327867252718
5669910,2261,2339,1931,2052,1745154327867252718
5670910,2273,2312,1952,2040,1745154327867252718
5671910,2285,2268,1973,2026,1745154327867252718
5672910,2300,2218,1998,2013,1745154327867252718
5673910,2309,2150,2008,1997,1745154327867252718
5674910,2326,2097,2020,1989,1745154327867252718
5675910,2355,2089,2075,2005,1745154327867252718
5676910,2412,2013,2070,1942,1745154327867252718
5677910,2373,1908,2036,1938,1745154327867252718
5678910,2402,1872,2050,1924,1745154327867252718
5679911,2426,1842,2067,1935,1745154327867252718
5680911,2457,1835,2076,1945,1745154327867252718
5681911,2480,1843,2072,1962,1745154327867252718
5682911,2491,1874,2057,1992,1745154327867252718
5683911,2493,1912,2037,2027,1745154327867252718
5684911,2478,1954,2016,2070,1745154327867252718
5685911,2452,2005,1996,2120,1745154327867252718
5686911,2416,2064,1982,2168,1745154327867252718
5687911,2372,2112,1965,2212,1745154327867252718
5688911,2324,2149,1949,2237,1745154327867252718
5689911,2275,2161,1925,2253,1745154327867252718
5690911,2227,2153,1896,2261,1745154327867252718
5691912,2178,2130,1877,2260,1745154327867252718
5692912,2130,2094,1873,2249,1745154327867252718
5693912,2088,2052,1884,2216,1745154327867252718
5694912,2051,2005,1899,2158,1745154327867252718
5695912,2017,1963,1920,2084,1745154327867252718
5696912,2001,1920,1949,1994,1745154327867252718
5697912,1993,1881,1972,1898,1745154327867252718
5698912,1998,1853,1992,1808,1745154327867252718
5699912,2018,1835,2009,1737,1745154327867252718
5700912,2057,1828,2018,1710,1745154327867252718
5701912,2106,1832,2022,1713,1745154327867252718
5702912,2168,1845,2012,1737,1745154327867252718
5703913,2228,1867,1994,1770,1745154327867252718
5704913,2275,1891,1965,1795,1745154327867252718
5705913,2310,1923,1930,1814,1745154327867252718
5706913,2332,1958,1891,1834,1745154327867252718
5707913,2337,1999,1857,1860,1745154327867252718
5708913,2330,2035,1841,1874,1745154327867252718
5709913,2310,2061,1843,1893,1745154327867252718
5710913,2291,2069,1866,1912,1745154327867252718
5711913,2270,2062,1892,1928,1745154327867252718
5712913,2253,2035,1920,1939,1745154327867252718
5713913,2233,2001,1944,1949,1745154327867252718
5714913,2217,1966,1972,1953,1745154327867252718
5715914,2192,1937,2015,1940,1745154327867252718
5716914,2164,1885,2072,1908,1745154327867252718
5717914,2141,1848,2131,1872,1745154327867252718
5718914,2132,1820,2193,1838,1745154327867252718
5719914,2134,1806,2242,1812,1745154327867252718
5720914,2142,1817,2274,1800,1745154327928474086
5721914,2146,1847,2291,1807,1745154327928474086
5722914,2139,1896,2298,1828,1745154327928474086
5723914,2121,1951,2304,1859,1745154327928474086
5724914,2099,2008,2316,1910,1745154327928474086
5725914,2077,2062,2331,1976,1745154327928474086
5726915,2058,2112,2337,2048,1745154327928474086
5727915,2028,2157,2332,2118,1745154327928474086
5728915,1997,2198,2314,2180,1745154327928474086
5729915,1957,2220,2283,2250,1745154327928474086
5730915,1915,2221,2233,2320,1745154327928474086
5731915,1881,2200,2166,2380,1745154327928474086
5732915,1825,2166,2105,2409,1745154327928474086
5733915,1818,2123,2050,2411,1745154327928474086
5734915,1792,2076,2008,2382,1745154327928474086
5735915,1763,2020,1968,2333,1745154327928474086
5736915,1744,1972,1945,2264,1745154327928474086
5737915,1729,1928,1920,2181,1745154327928474086
5738915,1721,1903,1889,2136,1745154327928474086
5739916,1754,1940,1856,2069,1745154327928474086
5740916,1741,1913,1744,1965,1745154327928474086
5741916,1706,1940,1680,1934,1745154327928474086
5742916,1716,1995,1632,1923,1745154327928474086
5743916,1732,2060,1612,1911,1745154327928474086
5744916,1741,2118,1590,1904,1745154327928474086
5745916,1752,2177,1585,1901,1745154327928474086
5746916,1759,2233,1590,1905,1745154327928474086
5747916,1766,2283,1618,1917,1745154327928474086
5748916,1758,2302,1642,1926,1745154327928474086
5749916,1754,2301,1696,1945,1745154327928474086
5750916,1747,2272,1768,1969,1745154327928474086
5751917,1750,2221,1849,1988,1745154327928474086
5752917,1753,2154,1930,1997,1745154327928474086
5753917,1758,2084,2004,2009,1745154327928474086
5754917,1762,2018,2068,2023,1745154327928474086
5755917,1766,1958,2124,2028,1745154327928474086
5756917,1772,1901,2170,2026,1745154327928474086
5757917,1779,1849,2204,2016,1745154327928474086
5758917,1791,1811,2228,2005,1745154327928474086
5759917,1803,1793,2243,2005,1745154327928474086
5760917,1814,1792,2253,2009,1745154327928474086
5761917,1825,1809,2260,2021,1745154327928474086
5762917,1840,1835,2265,2036,1745154327928474086
5763918,1853,1874,2262,2049,1745154327928474086
5764918,1865,1924,2243,2073,1745154327928474086
5765918,1873,1982,2203,2104,1745154327928474086
5766918,1880,2048,2138,2146,1745154327928474086
5767918,1877,2108,2052,2192,1745154327928474086
5768918,1869,2154,1958,2223,1745154327928474086
5769918,1851,2181,1870,2236,1745154327928474086
5770918,1829,2189,1804,2228,1745154327928474086
5771918,1813,2200,1760,2208,1745154327928474086
5772918,1798,2220,1733,2181,1745154327928474086
5773919,1798,2241,1732,2160,1745154327928474086
5774918,1801,2233,1757,2156,1745154327928474086
5775919,1813,2210,1806,2155,1745154327928474086
5776919,1838,2184,1883,2160,1745154327928474086
5777919,1872,2163,1972,2157,1745154327928474086
5778919,1911,2155,2062,2142,1745154327980481580
5779919,1954,2141,2141,2113,1745154327980481580
5780919,1995,2131,2200,2078,1745154327980481580
5781919,2024,2128,2227,2030,1745154327980481580
5782919,2051,2132,2226,1980,1745154327980481580
5783919,2068,2147,2194,1933,1745154327980481580
5784919,2084,2170,2130,1904,1745154327980481580
5785919,2108,2202,2044,1890,1745154327980481580
5786920,2127,2237,1947,1882,1745154327980481580
5787920,2139,2269,1868,1883,1745154327980481580
5788920,2137,2288,1824,1886,1745154327980481580
5789920,2131,2303,1814,1901,1745154327980481580
5790920,2116,2302,1845,1928,1745154327980481580
5791920,2113,2281,1897,1952,1745154327980481580
5792920,2115,2224,1950,1962,1745154327980481580
5793920,2122,2160,2021,1995,1745154327980481580
5794922,2145,2076,2094,2020,1745154327980481580
5795920,2161,1977,2154,2029,1745154327980481580
5796921,2187,1880,2203,2035,1745154327980481580
5797920,2209,1793,2227,2036,1745154327980481580
5798920,2233,1740,2236,2040,1745154327980481580
5799921,2265,1702,2239,2043,1745154327980481580
5800921,2300,1714,2308,2094,1745154327980481580
5801921,2394,1728,2256,2022,1745154327980481580
5802921,2342,1723,2254,2033,1745154327980481580
5803921,2354,1793,2271,2051,1745154327980481580
5804921,2358,1866,2268,2081,1745154327980481580
5805921,2344,1934,2230,2123,1745154327980481580
5806921,2314,2010,2164,2161,1745154327980481580
5807921,2280,2081,2077,2195,1745154327980481580
5808921,2236,2153,1998,2213,1745154327980481580
5809921,2182,2198,1993,2289,1745154327980481580
5810921,2190,2281,1924,2223,1745154327980481580
5811922,2080,2215,1837,2200,1745154327980481580
5812922,2037,2203,1813,2203,1745154327980481580
5813922,2005,2192,1795,2219,1745154327980481580
5814922,1972,2184,1778,2245,1745154327980481580
5815922,1938,2165,1780,2262,1745154327980481580
5816922,1909,2100,1811,2264,1745154327980481580
5817922,1896,1993,1868,2233,1745154327980481580
5818922,1898,1892,1944,2184,1745154327980481580
5819922,1909,1811,2020,2130,1745154327980481580
5820922,1931,1765,2099,2082,1745154327980481580
5821922,1961,1741,2160,2054,1745154327980481580
5822923,1998,1748,2206,2040,1745154327980481580
5823923,2032,1774,2246,2025,1745154327980481580
5824923,2062,1792,2263,2003,1745154327980481580
5825923,2085,1791,2247,1967,1745154327980481580
5826923,2100,1798,2196,1930,1745154327980481580
5827923,2105,1827,2125,1913,1745154327980481580
5828923,2097,1872,2058,1908,1745154327980481580
5829923,2079,1915,1998,1903,1745154327980481580
5830923,2052,1955,1952,1904,1745154327980481580
5831923,2023,1982,1922,1920,1745154327980481580
5832923,1994,2008,1911,1957,1745154327980481580
5833923,1965,2017,1929,2005,1745154327980481580
5834923,1938,2013,1984,2056,1745154327980481580
5835924,1916,2010,2072,2090,1745154327980481580
5836924,1906,2006,2173,2109,1745154328037032000
5837924,1900,2011,2262,2107,1745154328037032000
5838924,1910,2020,2325,2092,1745154328037032000
5839924,1931,2043,2350,2078,1745154328037032000
5840924,1954,2073,2332,2058,1745154328037032000
5841924,1980,2110,2284,2042,1745154328037032000
5842924,2007,2154,2220,2021,1745154328037032000
5843924,2042,2200,2158,2017,1745154328037032000
5844924,2075,2248,2073,2039,1745154328037032000
5845924,2104,2302,1984,2077,1745154328037032000
5846924,2128,2353,1901,2134,1745154328037032000
5847925,2136,2400,1840,2189,1745154328037032000
5848925,2127,2445,1796,2232,1745154328037032000
5849925,2109,2490,1782,2258,1745154328037032000
5850925,2078,2533,1792,2251,1745154328037032000
5851925,2026,2541,1826,2242,1745154328037032000
5852925,1986,2591,1914,2289,1745154328037032000
5853925,2001,2560,1902,2202,1745154328037032000
5854925,1922,2422,1924,2178,1745154328037032000
5855925,1926,2331,1969,2154,1745154328037032000
5856925,1964,2229,2025,2117,1745154328037032000
5857925,2026,2125,2073,2078,1745154328037032000
5858925,2115,2041,2107,2048,1745154328037032000
5859926,2217,1988,2118,2002,1745154328037032000
5860926,2279,1958,2119,1990,1745154328037032000
5861926,2346,1957,2127,1984,1745154328037032000
5862926,2383,1966,2133,1985,1745154328037032000
5863926,2397,1985,2143,1992,1745154328037032000
5864926,2390,2018,2136,2000,1745154328037032000
5865926,2364,2065,2097,2004,1745154328037032000
5866927,2324,2120,2041,2020,1745154328037032000
5867926,2273,2184,1986,2048,1745154328037032000
5868926,2214,2230,1942,2072,1745154328037032000
5869926,2153,2257,1917,2086,1745154328037032000
5870926,2086,2260,1906,2089,1745154328037032000
5871927,2022,2235,1913,2094,1745154328037032000
5872927,1966,2188,1941,2118,1745154328037032000
5873927,1916,2116,1987,2176,1745154328037032000
5874927,1886,2028,2056,2241,1745154328037032000
5875927,1867,1937,2139,2296,1745154328037032000
5876927,1865,1861,2226,2323,1745154328037032000
5877927,1874,1797,2290,2306,1745154328037032000
5878927,1890,1755,2318,2251,1745154328037032000
5879927,1905,1741,2313,2172,1745154328037032000
5880927,1922,1737,2285,2098,1745154328037032000
5881927,1932,1731,2246,2035,1745154328037032000
5882927,1945,1725,2216,1982,1745154328037032000
5883928,1951,1721,2185,1947,1745154328037032000
5884928,1951,1730,2145,1928,1745154328037032000
5885928,1950,1756,2082,1929,1745154328037032000
5886928,1951,1788,2011,1945,1745154328037032000
5887928,1945,1828,1931,1978,1745154328037032000
5888928,1937,1871,1867,2014,1745154328037032000
5889928,1918,1912,1834,2053,1745154328037032000
5890928,1893,1938,1829,2098,1745154328037032000
5891928,1875,1944,1841,2129,1745154328037032000
5892928,1859,1939,1869,2138,1745154328037032000
5893928,1847,1919,1912,2123,1745154328037032000
5894928,1834,1891,1965,2102,1745154328097699311
5895929,1826,1866,2039,2076,1745154328097699311
5896929,1824,1841,2125,2040,1745154328097699311
5897929,1829,1821,2196,2004,1745154328097699311
5898929,1846,1818,2236,1976,1745154328097699311
5899929,1868,1833,2251,1955,1745154328097699311
5900929,1890,1868,2229,1939,1745154328097699311
5901929,1905,1917,2190,1918,1745154328097699311
5902929,1916,1987,2130,1900,1745154328097699311
5903929,1925,2049,2062,1897,1745154328097699311
5904929,1937,2108,1986,1917,1745154328097699311
5905929,1945,2169,1902,1951,1745154328097699311
5906930,1955,2238,1818,1995,1745154328097699311
5907930,1950,2325,1749,2038,1745154328097699311
5908930,1936,2438,1717,2133,1745154328097699311
5909930,1961,2587,1741,2153,1745154328097699311
5910930,1877,2579,1709,2114,1745154328097699311
5911930,1827,2612,1753,2128,1745154328097699311
5912930,1797,2621,1809,2129,1745154328097699311
5913930,1776,2594,1873,2119,1745154328097699311
5914930,1771,2555,1933,2114,1745154328097699311
5915930,1743,2462,2002,2135,1745154328097699311
5916930,1745,2360,2081,2156,1745154328097699311
5917930,1760,2243,2131,2171,1745154328097699311
5918930,1789,2137,2173,2158,1745154328097699311
5919931,1836,2051,2189,2130,1745154328097699311
5920931,1880,1994,2180,2099,1745154328097699311
5921931,1914,1973,2150,2076,1745154328097699311
5922931,1939,1969,2114,2070,1745154328097699311
5923931,1963,1978,2073,2057,1745154328097699311
5924931,1976,1996,2027,2034,1745154328097699311
5925931,1981,2022,1975,2015,1745154328097699311
5926931,1977,2046,1914,2020,1745154328097699311
5927931,1964,2060,1870,2049,1745154328097699311
5928931,1952,2057,1848,2094,1745154328097699311
5929931,1938,2024,1858,2129,1745154328097699311
5930931,1926,1944,1894,2140,1745154328097699311
5931932,1913,1851,1946,2135,1745154328097699311
5932932,1900,1774,2008,2119,1745154328097699311
5933932,1889,1715,2073,2100,1745154328097699311
5934932,1884,1662,2142,2076,1745154328097699311
5935932,1886,1609,2219,2051,1745154328097699311
5936932,1897,1553,2296,2023,1745154328097699311
5937932,1912,1512,2345,1997,1745154328097699311
5938932,1932,1481,2356,1983,1745154328097699311
5939932,1961,1476,2322,1980,1745154328097699311
5940932,1980,1500,2251,1998,1745154328097699311
5941932,1993,1540,2164,2042,1745154328097699311
5942933,1998,1611,2084,2100,1745154328097699311
5943933,2003,1690,2021,2144,1745154328097699311
5944933,2002,1770,1965,2182,1745154328097699311
5945933,2014,1854,1897,2203,1745154328097699311
5946933,2028,1942,1827,2217,1745154328097699311
5947933,2040,2030,1765,2217,1745154328097699311
5948933,2054,2099,1715,2191,1745154328097699311
5949933,2056,2136,1699,2149,1745154328097699311
5950933,2050,2141,1719,2099,1745154328097699311
5951933,2042,2127,1776,2061,1745154328097699311
5952933,2038,2107,1858,2022,1745154328157489442
5953933,2033,2105,1953,1987,1745154328157489442
5954933,2032,2114,2056,1946,1745154328157489442
5955934,2032,2094,2139,1890,1745154328157489442
5956934,2032,2043,2187,1825,1745154328157489442
5957934,2033,1987,2209,1780,1745154328157489442
5958934,2037,1941,2202,1766,1745154328157489442
5959934,2049,1909,2169,1782,1745154328157489442
5960934,2052,1893,2116,1813,1745154328157489442
5961934,2051,1898,2074,1834,1745154328157489442
5962934,2045,1933,2041,1844,1745154328157489442
5963934,2049,1980,2012,1853,1745154328157489442
5964934,2059,2039,1992,1887,1745154328157489442
5965934,2080,2075,1921,1923,1745154328157489442
5966935,2136,2113,1856,1982,1745154328157489442
5967935,2128,2109,1817,2064,1745154328157489442
5968935,2136,2070,1778,2149,1745154328157489442
5969935,2129,2017,1805,2284,1745154328157489442
5970935,2160,1996,1770,2272,1745154328157489442
5971935,2065,1875,1788,2287,1745154328157489442
5972935,2035,1809,1858,2286,1745154328157489442
5973935,2012,1736,1937,2254,1745154328157489442
5974935,1986,1667,2037,2216,1745154328157489442
5975935,1968,1609,2108,2156,1745154328157489442
5976935,1953,1556,2170,2113,1745154328157489442
5977935,1950,1532,2212,2096,1745154328157489442
5978935,1956,1526,2229,2084,1745154328157489442
5979936,1961,1528,2208,2063,1745154328157489442
5980936,1959,1549,2150,2016,1745154328157489442
5981936,1957,1605,2080,1966,1745154328157489442
5982936,1958,1677,2013,1926,1745154328157489442
5983936,1964,1762,1953,1884,1745154328157489442
5984936,1968,1851,1898,1861,1745154328157489442
5985936,1971,1946,1827,1864,1745154328157489442
5986936,1972,2040,1762,1890,1745154328157489442
5987936,1978,2110,1732,1950,1745154328157489442
5988936,1992,2154,1753,2036,1745154328157489442
5989936,2010,2176,1804,2130,1745154328157489442
5990936,2027,2177,1862,2205,1745154328157489442
5991937,2036,2169,1912,2256,1745154328157489442
5992937,2049,2158,1952,2286,1745154328157489442
5993937,2056,2144,1980,2298,1745154328157489442
5994937,2061,2120,2002,2299,1745154328157489442
5995937,2069,2088,2031,2310,1745154328157489442
5996937,2085,2048,2074,2350,1745154328157489442
5997937,2112,2007,2116,2397,1745154328157489442
5998937,2149,1975,2157,2424,1745154328157489442
5999937,2182,1965,2183,2420,1745154328157489442
6000937,2213,1970,2204,2379,1745154328157489442
6001937,2241,1993,2213,2318,1745154328157489442
6002937,2266,2028,2203,2265,1745154328157489442
6003938,2285,2081,2189,2218,1745154328157489442
6004938,2295,2147,2155,2185,1745154328157489442
6005938,2297,2220,2100,2172,1745154328157489442
6006938,2294,2287,2056,2171,1745154328157489442
6007938,2288,2338,2024,2167,1745154328157489442
6008938,2278,2380,2025,2158,1745154328157489442
6009938,2262,2408,2043,2141,1745154328157489442
6010938,2241,2441,2088,2127,1745154328279144060
6011938,2218,2471,2140,2115,1745154328279144060
6012938,2194,2494,2193,2117,1745154328279144060
6013938,2177,2498,2246,2124,1745154328279144060
6014940,2171,2480,2304,2135,1745154328279144060
6015939,2158,2440,2377,2140,1745154328279144060
6016939,2161,2392,2452,2136,1745154328279144060
6017939,2173,2340,2500,2120,1745154328279144060
6018939,2190,2304,2512,2086,1745154328279144060
6019939,2213,2284,2483,2049,1745154328279144060
6020939,2232,2282,2424,2021,1745154328279144060
6021939,2248,2304,2344,2022,1745154328279144060
6022939,2253,2340,2254,2043,1745154328279144060
6023940,2259,2381,2164,2070,1745154328279144060
6024939,2246,2426,2069,2097,1745154328279144060
6025939,2238,2490,1979,2171,1745154328279144060
6026939,2232,2576,1875,2132,1745154328279144060
6027941,2250,2561,1822,2146,1745154328279144060
6028940,2219,2585,1742,2179,1745154328279144060
6029940,2152,2633,1788,2177,1745154328279144060
6030940,2177,2557,1773,2088,1745154328279144060
6031940,2105,2484,1824,2057,1745154328279144060
6032940,2098,2435,1888,2027,1745154328279144060
6033940,2098,2386,1943,2027,1745154328279144060
6034940,2096,2334,2002,2053,1745154328279144060
6035940,2098,2254,2079,2080,1745154328279144060
6036940,2114,2189,2162,2080,1745154328279144060
6037940,2126,2133,2228,2071,1745154328279144060
6038940,2149,2088,2281,2038,1745154328279144060
6039941,2189,2049,2284,2052,1745154328279144060
6040941,2273,2026,2282,1989,1745154328279144060
6041941,2245,1999,2257,1973,1745154328279144060
6042941,2275,2004,2224,1958,1745154328279144060
6043941,2292,2022,2182,1952,1745154328279144060
6044941,2298,2052,2125,1968,1745154328279144060
6045941,2294,2085,2061,2002,1745154328279144060
6046941,2289,2130,1990,2033,1745154328279144060
6047941,2274,2179,1939,2064,1745154328279144060
6048941,2258,2219,1920,2083,1745154328279144060
6049941,2240,2251,1930,2088,1745154328279144060
6050941,2213,2271,1968,2080,1745154328279144060
6051942,2189,2276,2013,2053,1745154328279144060
6052942,2170,2272,2064,2017,1745154328279144060
6053942,2157,2256,2114,1984,1745154328279144060
6054942,2149,2226,2165,1955,1745154328279144060
6055942,2150,2187,2230,1936,1745154328279144060
6056942,2153,2137,2297,1922,1745154328279144060
6057942,2156,2091,2360,1918,1745154328279144060
6058942,2176,2058,2396,1933,1745154328279144060
6059942,2189,2036,2400,1940,1745154328279144060
6060942,2205,2034,2362,1945,1745154328279144060
6061942,2217,2056,2305,1952,1745154328279144060
6062942,2222,2086,2226,1969,1745154328279144060
6063943,2225,2120,2141,1979,1745154328279144060
6064943,2224,2153,2040,1974,1745154328279144060
6065943,2221,2193,1934,1961,1745154328279144060
6066943,2222,2228,1837,1933,1745154328279144060
6067943,2216,2262,1770,1913,1745154328279144060
6068943,2189,2287,1738,1902,1745154328288315486
6069943,2156,2296,1742,1907,1745154328288315486
6070943,2119,2283,1778,1924,1745154328288315486
6071943,2085,2254,1841,1941,1745154328288315486
6072943,2058,2211,1941,1968,1745154328288315486
6073943,2032,2166,2048,2003,1745154328288315486
6074943,2014,2132,2160,2036,1745154328288315486
6075944,1998,2104,2269,2060,1745154328288315486
6076944,1982,2075,2366,2075,1745154328288315486
6077944,1975,2049,2435,2081,1745154328288315486
6078944,1977,2033,2457,2060,1745154328288315486
6079944,1985,2026,2426,2019,1745154328288315486
6080944,1996,2028,2361,1997,1745154328288315486
6081944,2009,2050,2280,1979,1745154328288315486
6082944,2022,2074,2178,2000,1745154328288315486
6083944,2026,2123,2088,2021,1745154328288315486
6084945,2022,2177,2010,2040,1745154328288315486
6085944,2021,2236,1948,2041,1745154328288315486
6086944,2010,2286,1905,2026,1745154328288315486
6087945,1994,2326,1896,2011,1745154328288315486
6088945,1978,2342,1923,2017,1745154328288315486
6089945,1968,2331,1986,2040,1745154328288315486
6090945,1969,2292,2076,2063,1745154328288315486
6091945,1975,2235,2174,2074,1745154328288315486
6092945,1981,2173,2268,2073,1745154328288315486
6093945,1981,2115,2339,2058,1745154328288315486
6094945,1974,2064,2404,2034,1745154328288315486
6095945,1966,2013,2468,2009,1745154328288315486
6096945,1958,1969,2525,1987,1745154328288315486
6097945,1959,1935,2559,1973,1745154328288315486
6098945,1965,1915,2559,1968,1745154328288315486
6099946,1979,1912,2547,1973,1745154328288315486
6100946,1989,1926,2501,1990,1745154328288315486
6101946,2006,1956,2438,2017,1745154328288315486
6102946,2018,1998,2363,2051,1745154328288315486
6103946,2028,2050,2286,2084,1745154328288315486
6104946,2034,2104,2194,2106,1745154328288315486
6105946,2034,2165,2091,2116,1745154328288315486
6106946,2025,2234,1983,2113,1745154328288315486
6107946,2003,2296,1889,2104,1745154328288315486
6108946,1972,2342,1834,2096,1745154328288315486
6109946,1940,2381,1811,2084,1745154328288315486
6110946,1915,2386,1826,2069,1745154328288315486
6111947,1893,2358,1867,2058,1745154328288315486
6112947,1883,2304,1928,2038,1745154328288315486
6113947,1884,2235,1995,2018,1745154328288315486
6114947,1892,2164,2077,1994,1745154328288315486
6115947,1906,2089,2156,1963,1745154328288315486
6116947,1929,2008,2235,1931,1745154328288315486
6117947,1955,1925,2293,1902,1745154328288315486
6118947,1984,1853,2309,1870,1745154328288315486
6119947,2011,1808,2289,1843,1745154328288315486
6120947,2034,1793,2241,1827,1745154328288315486
6121947,2051,1810,2181,1820,1745154328288315486
6122947,2062,1858,2120,1819,1745154328288315486
6123948,2073,1926,2066,1829,1745154328288315486
6124948,2083,2005,1992,1840,1745154328288315486
6125948,2089,2090,1914,1861,1745154328288315486
6126948,2088,2164,1837,1897,1745154328339506685
6127948,2081,2217,1777,1945,1745154328339506685
6128948,2067,2248,1748,2005,1745154328339506685
6129948,2051,2264,1753,2063,1745154328339506685
6130948,2036,2259,1776,2093,1745154328339506685
6131948,2025,2244,1805,2106,1745154328339506685
6132948,2018,2224,1844,2102,1745154328339506685
6133948,2006,2197,1885,2092,1745154328339506685
6134948,1998,2164,1938,2067,1745154328339506685
6135949,1990,2124,2009,2032,1745154328339506685
6136949,1983,2072,2097,2006,1745154328339506685
6137950,1977,2020,2193,2004,1745154328339506685
6138949,1990,1981,2293,2034,1745154328339506685
6139949,2013,1957,2392,2077,1745154328339506685
6140949,2048,1946,2486,2102,1745154328339506685
6141949,2081,1952,2566,2110,1745154328339506685
6142950,2107,1978,2638,2101,1745154328339506685
6143949,2123,2017,2691,2093,1745154328339506685
6144949,2130,2057,2717,2073,1745154328339506685
6145949,2141,2107,2724,2054,1745154328339506685
6146949,2160,2161,2710,2047,1745154328339506685
6147950,2142,2192,2678,1993,1745154328339506685
6148950,2112,2226,2674,1955,1745154328339506685
6149950,2093,2249,2715,1916,1745154328339506685
6150950,2126,2313,2873,1938,1745154328339506685
6151950,2116,2269,2969,1921,1745154328339506685
6152950,2052,2160,2994,1883,1745154328339506685
6153950,2034,2116,3102,1916,1745154328339506685
6154950,2035,2073,3212,1969,1745154328339506685
6155950,2038,2027,3316,2020,1745154328339506685
6156950,2044,1984,3393,2054,1745154328339506685
6157950,2049,1946,3441,2065,1745154328339506685
6158951,2059,1923,3464,2061,1745154328339506685
6159951,2137,1917,3466,2045,1745154328339506685
6160951,2104,1905,3448,2025,1745154328339506685
6161951,2122,1920,3405,2011,1745154328339506685
6162951,2146,1957,3366,2001,1745154328339506685
6163951,2155,2004,3323,1998,1745154328339506685
6164951,2152,2054,3266,1996,1745154328339506685
6165951,2136,2101,3178,1999,1745154328339506685
6166951,2113,2141,3089,1997,1745154328339506685
6167951,2082,2164,3009,2012,1745154328339506685
6168951,2054,2179,2955,2057,1745154328339506685
6169951,2022,2187,2914,2120,1745154328339506685
6170951,1996,2187,2893,2173,1745154328339506685
6171952,1972,2178,2879,2201,1745154328339506685
6172952,1954,2162,2869,2216,1745154328339506685
6173952,1933,2138,2870,2222,1745154328339506685
6174952,1920,2110,2882,2217,1745154328339506685
6175952,1912,2073,2905,2195,1745154328339506685
6176952,1913,2027,2939,2157,1745154328339506685
6177952,1926,1982,2958,2098,1745154328339506685
6178952,1941,1931,2952,2026,1745154328339506685
6179952,1965,1897,2908,1955,1745154328339506685
6180952,1989,1884,2829,1870,1745154328339506685
6181952,2003,1898,2728,1786,1745154328339506685
6182952,2010,1930,2606,1701,1745154328339506685
6183953,2010,1971,2494,1645,1745154328339506685
6184953,2008,2026,2382,1616,1745154328392710210
6185953,1997,2079,2287,1635,1745154328392710210
6186953,1989,2125,2228,1713,1745154328392710210
6187953,1995,2142,2224,1831,1745154328392710210
6188953,2010,2130,2267,1978,1745154328392710210
6189953,2030,2104,2347,2108,1745154328392710210
6190953,2050,2068,2438,2201,1745154328392710210
6191953,2061,2029,2522,2243,1745154328392710210
6192953,2062,1984,2580,2243,1745154328392710210
6193953,2056,1947,2616,2206,1745154328392710210
6194953,2043,1916,2637,2150,1745154328392710210
6195954,2036,1890,2646,2088,1745154328392710210
6196954,2029,1870,2636,2030,1745154328392710210
6197954,2027,1856,2604,1993,1745154328392710210
6198954,2028,1852,2560,1981,1745154328392710210
6199954,2040,1857,2508,1998,1745154328392710210
6200954,2056,1870,2444,2040,1745154328392710210
6201954,2073,1898,2369,2090,1745154328392710210
6202954,2085,1936,2289,2133,1745154328392710210
6203956,2094,1988,2203,2163,1745154328392710210
6204955,2088,2044,2114,2193,1745154328392710210
6205954,2088,2106,2025,2214,1745154328392710210
6206954,2073,2156,1977,2274,1745154328392710210
6207955,2101,2259,1925,2203,1745154328392710210
6208955,2060,2271,1891,2205,1745154328392710210
6209955,2027,2216,1837,2098,1745154328392710210
6210955,1960,2187,1846,2050,1745154328392710210
6211955,1957,2228,1905,2054,1745154328392710210
6212955,1997,2168,1857,1949,1745154328392710210
6213955,1931,2058,1842,1937,1745154328392710210
6214955,1929,2012,1852,1969,1745154328392710210
6215955,1937,1963,1875,2026,1745154328392710210
6216955,1950,1941,1908,2087,1745154328392710210
6217955,1970,1867,1920,2109,1745154328392710210
6218956,1990,1846,1908,2140,1745154328392710210
6219956,2014,1872,1865,2140,1745154328392710210
6220956,2030,1914,1806,2125,1745154328392710210
6221956,2041,1967,1751,2096,1745154328392710210
6222956,2054,2030,1694,2064,1745154328392710210
6223956,2058,2092,1631,2045,1745154328392710210
6224956,2057,2152,1561,2041,1745154328392710210
6225956,2050,2204,1489,2042,1745154328392710210
6226956,2032,2248,1414,2059,1745154328392710210
6227956,2015,2280,1361,2077,1745154328392710210
6228956,2001,2294,1326,2088,1745154328392710210
6229956,1982,2289,1315,2091,1745154328392710210
6230956,1970,2265,1320,2099,1745154328392710210
6231957,1965,2225,1344,2114,1745154328392710210
6232957,1966,2173,1375,2127,1745154328392710210
6233957,1976,2125,1409,2117,1745154328392710210
6234957,1986,2077,1448,2080,1745154328392710210
6235957,1997,2032,1488,2029,1745154328392710210
6236957,2006,1990,1525,1971,1745154328392710210
6237957,2012,1952,1535,1905,1745154328392710210
6238957,2020,1926,1538,1856,1745154328392710210
6239957,2033,1909,1535,1825,1745154328392710210
6240957,2052,1906,1535,1832,1745154328392710210
6241957,2065,1917,1526,1867,1745154328392710210
6242957,2077,1942,1520,1924,1745154328457368525
6243958,2088,1969,1497,1984,1745154328457368525
6244958,2092,1996,1456,2041,1745154328457368525
6245958,2089,2030,1397,2090,1745154328457368525
6246958,2080,2072,1343,2129,1745154328457368525
6247958,2060,2120,1308,2165,1745154328457368525
6248958,2037,2153,1305,2202,1745154328457368525
6249958,2017,2177,1321,2225,1745154328457368525
6250958,1994,2182,1358,2240,1745154328457368525
6251958,1980,2169,1408,2234,1745154328457368525
6252958,1974,2140,1450,2209,1745154328457368525
6253958,1972,2102,1481,2178,1745154328457368525
6254958,1976,2067,1509,2164,1745154328457368525
6255959,1980,2038,1535,2153,1745154328457368525
6256959,1990,2014,1553,2138,1745154328457368525
6257959,2005,2006,1568,2101,1745154328457368525
6258959,2019,2008,1560,2042,1745154328457368525
6259959,2032,2017,1535,1962,1745154328457368525
6260959,2050,2019,1506,1895,1745154328457368525
6261959,2070,2026,1469,1856,1745154328457368525
6262959,2091,2017,1428,1844,1745154328457368525
6263959,2113,2009,1399,1860,1745154328457368525
6264959,2142,2018,1394,1933,1745154328457368525
6265959,2194,2071,1307,1903,1745154328457368525
6266959,2122,2040,1248,1909,1745154328457368525
6267960,2104,2083,1217,1920,1745154328457368525
6268960,2080,2125,1195,1917,1745154328457368525
6269960,2049,2149,1196,1910,1745154328457368525
6270960,2013,2160,1190,1905,1745154328457368525
6271960,1983,2147,1214,1936,1745154328457368525
6272960,1973,2127,1250,1970,1745154328457368525
6273960,1972,2091,1291,2016,1745154328457368525
6274960,1979,2056,1350,2066,1745154328457368525
6275960,1990,2005,1422,2105,1745154328457368525
6276960,2011,1955,1494,2117,1745154328457368525
6277960,2038,1909,1535,2107,1745154328457368525
6278960,2066,1884,1544,2078,1745154328457368525
6279961,2084,1872,1535,2051,1745154328457368525
6280961,2095,1873,1515,2060,1745154328457368525
6281961,2101,1890,1480,2113,1745154328457368525
6282961,2101,1921,1449,2201,1745154328457368525
6283961,2097,1953,1423,2283,1745154328457368525
6284961,2100,1984,1396,2326,1745154328457368525
6285961,2106,2020,1372,2313,1745154328457368525
6286961,2106,2061,1340,2237,1745154328457368525
6287961,2095,2093,1324,2145,1745154328457368525
6288961,2082,2099,1328,2050,1745154328457368525
6289961,2079,2081,1363,1980,1745154328457368525
6290961,2074,2043,1426,1952,1745154328457368525
6291962,2065,1998,1495,1940,1745154328457368525
6292962,2057,1957,1557,1945,1745154328457368525
6293962,2050,1918,1617,1940,1745154328457368525
6294962,2034,1890,1675,1937,1745154328457368525
6295962,2024,1861,1735,1934,1745154328457368525
6296962,2017,1839,1774,1931,1745154328457368525
6297962,2013,1826,1789,1931,1745154328457368525
6298962,2019,1827,1776,1934,1745154328457368525
6299962,2025,1844,1745,1936,1745154328457368525
6300962,2033,1882,1699,1942,1745154328509574246
6301962,2038,1925,1634,1947,1745154328509574246
6302962,2041,1973,1583,1941,1745154328509574246
6303963,2044,2024,1535,1928,1745154328509574246
6304963,2036,2073,1485,1913,1745154328509574246
6305963,2025,2110,1457,1906,1745154328509574246
6306963,2010,2143,1452,1925,1745154328509574246
6307963,1996,2155,1489,1970,1745154328509574246
6308963,1985,2155,1545,2025,1745154328509574246
6309963,1976,2131,1621,2072,1745154328509574246
6310963,1961,2096,1687,2092,1745154328509574246
6311963,1946,2052,1737,2090,1745154328509574246
6312963,1931,2005,1767,2058,1745154328509574246
6313963,1922,1957,1789,2016,1745154328509574246
6314963,1910,1921,1818,1973,1745154328509574246
6315964,1914,1888,1848,1932,1745154328509574246
6316964,1922,1865,1880,1909,1745154328509574246
6317964,1938,1851,1901,1920,1745154328509574246
6318964,1950,1854,1893,1950,1745154328509574246
6319964,1964,1886,1859,1980,1745154328509574246
6320964,1978,1973,1806,1981,1745154328509574246
6321964,1985,2001,1745,1999,1745154328509574246
6322964,1994,2062,1684,1992,1745154328509574246
6323964,1994,2109,1632,1990,1745154328509574246
6324964,2003,2139,1596,2002,1745154328509574246
6325965,2024,2150,1573,2011,1745154328509574246
6326964,2054,2148,1571,2022,1745154328509574246
6327965,2081,2138,1585,2030,1745154328509574246
6328965,2090,2127,1616,2048,1745154328509574246
6329965,2090,2134,1653,2115,1745154328509574246
6330965,2136,2107,1692,2078,1745154328509574246
6331965,2058,2057,1725,2112,1745154328509574246
6332965,2039,2026,1769,2149,1745154328509574246
6333965,2031,2004,1809,2172,1745154328509574246
6334965,2020,1987,1853,2178,1745154328509574246
6335965,2019,1945,1886,2154,1745154328509574246
6336965,2016,1921,1924,2126,1745154328509574246
6337965,2024,1906,1938,2081,1745154328509574246
6338965,2038,1901,1935,2050,1745154328509574246
6339966,2060,1907,1912,2028,1745154328509574246
6340966,2075,1924,1873,2026,1745154328509574246
6341966,2091,1952,1826,2026,1745154328509574246
6342966,2106,1985,1778,2028,1745154328509574246
6343966,2115,2021,1725,2033,1745154328509574246
6344966,2123,2065,1672,2045,1745154328509574246
6345966,2118,2107,1625,2061,1745154328509574246
6346966,2112,2148,1594,2082,1745154328509574246
6347966,2100,2182,1594,2102,1745154328509574246
6348966,2083,2204,1620,2126,1745154328509574246
6349966,2064,2213,1670,2166,1745154328509574246
6350966,2042,2212,1723,2208,1745154328509574246
6351967,2027,2194,1784,2233,1745154328509574246
6352967,2010,2168,1833,2236,1745154328509574246
6353967,2000,2140,1878,2212,1745154328509574246
6354967,1990,2109,1922,2152,1745154328509574246
6355967,1989,2072,1963,2081,1745154328509574246
6356967,1997,2027,1997,1992,1745154328509574246
6357967,2013,1984,2024,1931,1745154328509574246
6358969,2027,1936,2025,1890,1745154328581959991
6359967,2036,1897,2013,1866,1745154328581959991
6360967,2050,1878,1971,1834,1745154328581959991
6361967,2059,1882,1916,1800,1745154328581959991
6362967,2059,1906,1853,1766,1745154328581959991
6363968,2054,1957,1792,1752,1745154328581959991
6364968,2050,2033,1728,1756,1745154328581959991
6365968,2039,2112,1670,1785,1745154328581959991
6366968,2031,2174,1629,1844,1745154328581959991
6367968,2043,2212,1622,1918,1745154328581959991
6368968,2067,2219,1650,1989,1745154328581959991
6369968,2086,2204,1701,2053,1745154328581959991
6370968,2099,2176,1763,2077,1745154328581959991
6371968,2108,2136,1824,2094,1745154328581959991
6372968,2113,2088,1886,2102,1745154328581959991
6373968,2122,2038,1948,2108,1745154328581959991
6374969,2131,1992,2008,2105,1745154328581959991
6375969,2138,1946,2060,2098,1745154328581959991
6376969,2147,1913,2095,2084,1745154328581959991
6377969,2150,1896,2100,2081,1745154328581959991
6378969,2158,1898,2083,2095,1745154328581959991
6379969,2162,1912,2035,2125,1745154328581959991
6380969,2168,1949,1996,2171,1745154328581959991
6381969,2188,2011,1946,2253,1745154328581959991
6382969,2240,2123,1892,2240,1745154328581959991
6383969,2165,2129,1817,2260,1745154328581959991
6384969,2162,2192,1749,2269,1745154328581959991
6385969,2168,2233,1683,2250,1745154328581959991
6386969,2167,2313,1634,2213,1745154328581959991
6387970,2173,2254,1605,2152,1745154328581959991
6388970,2179,2216,1629,2099,1745154328581959991
6389970,2198,2162,1688,2059,1745154328581959991
6390970,2221,2108,1773,2027,1745154328581959991
6391970,2208,2054,1856,2001,1745154328581959991
6392970,2202,2010,1933,1985,1745154328581959991
6393970,2191,1981,1994,1977,1745154328581959991
6394971,2180,1958,2052,1966,1745154328581959991
6395970,2173,1933,2106,1945,1745154328581959991
6396970,2168,1910,2151,1923,1745154328581959991
6397970,2168,1895,2171,1900,1745154328581959991
6398970,2172,1883,2178,1892,1745154328581959991
6399971,2186,1886,2162,1889,1745154328581959991
6400971,2197,1901,2134,1898,1745154328581959991
6401971,2209,1931,2099,1897,1745154328581959991
6402971,2216,1970,2070,1911,1745154328581959991
6403971,2224,2012,2034,1937,1745154328581959991
6404971,2226,2059,1990,1972,1745154328581959991
6405971,2227,2101,1937,2018,1745154328581959991
6406971,2218,2142,1878,2070,1745154328581959991
6407971,2198,2174,1829,2131,1745154328581959991
6408971,2166,2200,1796,2187,1745154328581959991
6409971,2127,2211,1787,2224,1745154328581959991
6410971,2092,2208,1796,2237,1745154328581959991
6411972,2060,2189,1821,2231,1745154328581959991
6412972,2040,2158,1870,2205,1745154328581959991
6413972,2040,2121,1936,2176,1745154328581959991
6414972,2061,2075,2013,2129,1745154328581959991
6415972,2077,2018,2090,2091,1745154328581959991
6416972,2096,1962,2156,2068,1745154328657648154
6417972,2128,1908,2186,2058,1745154328657648154
6418972,2140,1866,2186,2038,1745154328657648154
6419972,2163,1835,2161,2013,1745154328657648154
6420972,2177,1836,2113,1990,1745154328657648154
6421972,2187,1875,2062,1974,1745154328657648154
6422972,2190,1932,2013,1974,1745154328657648154
6423973,2189,1996,1966,1988,1745154328657648154
6424973,2182,2057,1921,2017,1745154328657648154
6425973,2165,2127,1878,2066,1745154328657648154
6426973,2144,2185,1842,2123,1745154328657648154
6427973,2113,2232,1822,2187,1745154328657648154
6428973,2079,2264,1825,2246,1745154328657648154
6429973,2041,2276,1859,2283,1745154328657648154
6430973,2010,2280,1907,2287,1745154328657648154
6431973,1990,2263,1968,2252,1745154328657648154
6432973,1976,2229,2028,2188,1745154328657648154
6433973,1962,2192,2093,2107,1745154328657648154
6434974,1955,2153,2156,2019,1745154328657648154
6435974,1952,2106,2220,1938,1745154328657648154
6436974,1961,2050,2274,1876,1745154328657648154
6437974,1979,2003,2300,1824,1745154328657648154
6438974,2005,1947,2329,1803,1745154328657648154
6439974,2022,1915,2319,1804,1745154328657648154
6440974,2035,1904,2290,1824,1745154328657648154
6441974,2043,1908,2252,1864,1745154328657648154
6442975,2049,1922,2212,1913,1745154328657648154
6443974,2059,1947,2168,1956,1745154328657648154
6444976,2059,1975,2114,1995,1745154328657648154
6445974,2053,2013,2050,2030,1745154328657648154
6446974,2038,2052,1990,2057,1745154328657648154
6447975,2013,2106,1948,2073,1745154328657648154
6448975,1984,2122,1926,2077,1745154328657648154
6449975,1953,2139,1924,2065,1745154328657648154
6450975,1923,2137,1940,2052,1745154328657648154
6451975,1904,2120,1968,2035,1745154328657648154
6452975,1893,2082,2008,2048,1745154328657648154
6453975,1901,2032,2056,2089,1745154328657648154
6454975,1907,2024,2183,2206,1745154328657648154
6455975,1927,1923,2188,2180,1745154328657648154
6456975,1932,1878,2258,2198,1745154328657648154
6457975,1953,1859,2304,2185,1745154328657648154
6458975,1974,1857,2321,2182,1745154328657648154
6459976,1992,1867,2305,2083,1745154328657648154
6460976,2002,1880,2253,2030,1745154328657648154
6461976,2019,1912,2204,2001,1745154328657648154
6462976,2031,1938,2158,1986,1745154328657648154
6463976,2049,1960,2120,2001,1745154328657648154
6464976,2058,1978,2073,2042,1745154328657648154
6465976,2057,2000,2018,2110,1745154328657648154
6466976,2053,2038,1972,2172,1745154328657648154
6467976,2036,2085,1944,2214,1745154328657648154
6468977,2019,2139,1938,2232,1745154328657648154
6469978,1992,2188,1945,2226,1745154328657648154
6470977,1969,2217,1969,2214,1745154328657648154
6471977,1950,2221,2008,2200,1745154328657648154
6472977,1946,2202,2051,2190,1745154328657648154
6473977,1944,2171,2101,2166,1745154328657648154
6474977,1939,2136,2152,2113,1745154328686079874
6475977,1936,2098,2211,2037,1745154328686079874
6476977,1940,2056,2262,1960,1745154328686079874
6477977,1957,2006,2296,1894,1745154328686079874
6478977,1982,1969,2299,1845,1745154328686079874
6479977,2011,1940,2282,1811,1745154328686079874
6480977,2029,1926,2245,1804,1745154328686079874
6481977,2049,1923,2207,1826,1745154328686079874
6482977,2058,1928,2156,1875,1745154328686079874
6483978,2064,1948,2108,1934,1745154328686079874
6484978,2062,1984,2050,1993,1745154328686079874
6485978,2056,2033,1979,2050,1745154328686079874
6486978,2043,2088,1922,2093,1745154328686079874
6487978,2028,2145,1883,2116,1745154328686079874
6488978,2008,2187,1867,2117,1745154328686079874
6489978,1989,2218,1873,2117,1745154328686079874
6490978,1971,2230,1901,2125,1745154328686079874
6491978,1952,2222,1936,2130,1745154328686079874
6492978,1934,2195,1971,2115,1745154328686079874
6493978,1921,2158,2012,2100,1745154328686079874
6494978,1916,2114,2066,2089,1745154328686079874
6495979,1921,2057,2131,2096,1745154328686079874
6496979,1945,1987,2205,2109,1745154328686079874
6497979,1987,1924,2266,2102,1745154328686079874
6498979,2029,1872,2305,2089,1745154328686079874
6499979,2072,1848,2316,2084,1745154328686079874
6500979,2098,1849,2294,2085,1745154328686079874
6501979,2112,1864,2244,2084,1745154328686079874
6502979,2120,1904,2193,2081,1745154328686079874
6503979,2125,1950,2120,2060,1745154328686079874
6504979,2105,2006,2054,2050,1745154328686079874
6505979,2093,2074,1991,2035,1745154328686079874
6506979,2073,2132,1940,2026,1745154328686079874
6507980,2056,2168,1916,2044,1745154328686079874
6508980,2042,2173,1925,2091,1745154328686079874
6509980,2037,2157,1962,2146,1745154328686079874
6510980,2030,2125,2005,2181,1745154328686079874
6511980,2020,2089,2054,2180,1745154328686079874
6512980,2010,2051,2097,2134,1745154328686079874
6513980,1995,2033,2127,2068,1745154328686079874
6514980,1978,2031,2162,1994,1745154328686079874
6515980,1965,2036,2200,1933,1745154328686079874
6516980,1963,2026,2226,1888,1745154328686079874
6517980,1973,2002,2243,1875,1745154328686079874
6518980,2000,1974,2242,1899,1745154328686079874
6519981,2033,1960,2291,1993,1745154328686079874
6520981,2070,1961,2194,1976,1745154328686079874
6521981,2078,1974,2157,2026,1745154328686079874
6522981,2097,1997,2122,2080,1745154328686079874
6523981,2110,2008,2086,2134,1745154328686079874
6524981,2122,2024,2038,2187,1745154328686079874
6525981,2189,2106,1992,2233,1745154328686079874
6526981,2111,2080,1933,2262,1745154328686079874
6527981,2092,2120,1910,2282,1745154328686079874
6528981,2071,2142,1906,2283,1745154328686079874
6529981,2048,2153,1971,2318,1745154328686079874
6530981,2072,2192,1949,2192,1745154328686079874
6531982,1981,2115,1956,2093,1745154328686079874
6532982,1957,2104,1981,1995,1745154328754723621
6533982,1938,2091,2005,1892,1745154328754723621
6534982,1921,2068,2014,1795,1745154328754723621
6535982,1904,2031,2029,1738,1745154328754723621
6536982,1892,1978,2038,1724,1745154328754723621
6537982,1889,1911,2040,1744,1745154328754723621
6538982,1938,1857,2045,1804,1745154328754723621
6539982,1929,1815,2049,1881,1745154328754723621
6540982,1964,1785,2072,1970,1745154328754723621
6541982,2019,1774,2097,2048,1745154328754723621
6542982,2076,1785,2125,2099,1745154328754723621
6543983,2118,1814,2139,2114,1745154328754723621
6544983,2144,1860,2141,2113,1745154328754723621
6545983,2154,1916,2120,2101,1745154328754723621
6546983,2147,1984,2086,2086,1745154328754723621
6547983,2132,2049,2065,2084,1745154328754723621
6548983,2110,2099,2057,2109,1745154328754723621
6549983,2084,2144,2068,2138,1745154328754723621
6550983,2057,2158,2090,2163,1745154328754723621
6551983,2022,2166,2120,2179,1745154328754723621
6552983,1990,2168,2152,2176,1745154328754723621
6553983,1969,2163,2181,2149,1745154328754723621
6554983,1956,2145,2217,2104,1745154328754723621
6555984,1950,2114,2249,2049,1745154328754723621
6556984,1948,2067,2269,1989,1745154328754723621
6557984,1969,2011,2274,1944,1745154328754723621
6558984,1988,1962,2251,1923,1745154328754723621
6559985,2006,1927,2210,1905,1745154328754723621
6560984,2030,1912,2169,1912,1745154328754723621
6561984,2061,1918,2180,1980,1745154328754723621
6562984,2089,1932,2068,1949,1745154328754723621
6563986,2093,1951,2048,1989,1745154328754723621
6564985,2090,1983,2040,2049,1745154328754723621
6565984,2097,2034,2035,2104,1745154328754723621
6566984,2093,2088,2043,2155,1745154328754723621
6567985,2073,2133,2053,2185,1745154328754723621
6568985,2053,2162,2072,2200,1745154328754723621
6569985,2034,2165,2100,2198,1745154328754723621
6570985,2020,2150,2132,2173,1745154328754723621
6571985,2013,2120,2164,2131,1745154328754723621
6572985,2016,2082,2195,2075,1745154328754723621
6573985,2018,2040,2212,2020,1745154328754723621
6574985,2017,2006,2231,1976,1745154328754723621
6575985,2013,1978,2244,1932,1745154328754723621
6576985,2013,1954,2253,1899,1745154328754723621
6577985,2012,1942,2253,1888,1745154328754723621
6578985,2016,1942,2237,1896,1745154328754723621
6579986,2020,1957,2220,1940,1745154328754723621
6580986,2029,1992,2191,2009,1745154328754723621
6581986,2038,2034,2169,2083,1745154328754723621
6582986,2051,2084,2151,2152,1745154328754723621
6583986,2058,2132,2131,2187,1745154328754723621
6584986,2064,2182,2101,2179,1745154328754723621
6585986,2060,2229,2066,2145,1745154328754723621
6586986,2054,2266,2029,2096,1745154328754723621
6587986,2045,2290,2004,2044,1745154328754723621
6588986,2032,2286,1993,2005,1745154328754723621
6589986,2016,2264,1990,1990,1745154328754723621
6590986,2006,2217,2001,1993,1745154328812910277
6591987,1992,2154,2014,2016,1745154328812910277
6592987,1980,2096,2037,2060,1745154328812910277
6593987,1969,2038,2065,2113,1745154328812910277
6594987,1956,1990,2103,2159,1745154328812910277
6595987,1957,1955,2150,2188,1745154328812910277
6596987,1956,1934,2198,2195,1745154328812910277
6597987,1968,1923,2230,2181,1745154328812910277
6598987,1981,1928,2246,2152,1745154328812910277
6599987,1996,1938,2245,2118,1745154328812910277
6600987,2012,1963,2229,2088,1745154328812910277
6601987,2025,1987,2204,2064,1745154328812910277
6602987,2036,2020,2189,2043,1745154328812910277
6603988,2048,2062,2164,2026,1745154328812910277
6604988,2054,2104,2129,2019,1745154328812910277
6605988,2054,2145,2085,2027,1745154328812910277
6606988,2048,2185,2043,2050,1745154328812910277
6607988,2036,2214,2010,2072,1745154328812910277
6608988,2014,2231,1994,2096,1745154328812910277
6609988,1990,2232,1999,2121,1745154328812910277
6610988,1966,2224,2021,2136,1745154328812910277
6611988,1946,2201,2057,2142,1745154328812910277
6612988,1930,2164,2101,2144,1745154328812910277
6613988,1920,2129,2147,2148,1745154328812910277
6614988,1916,2091,2196,2155,1745154328812910277
6615989,1914,2052,2240,2164,1745154328812910277
6616989,1914,2021,2275,2169,1745154328812910277
6617989,1918,2004,2281,2163,1745154328812910277
6618989,1916,1994,2261,2172,1745154328812910277
6619989,1921,2009,2230,2150,1745154328812910277
6620989,1963,2033,2177,2097,1745154328812910277
6621989,1926,2065,2132,2053,1745154328812910277
6622991,1988,2113,2069,2010,1745154328812910277
6623989,1965,2148,2059,1973,1745154328812910277
6624989,1979,2192,2012,1953,1745154328812910277
6625989,1994,2218,1968,1965,1745154328812910277
6626989,2016,2222,1922,2008,1745154328812910277
6627991,2084,2265,1900,2050,1745154328812910277
6628990,2016,2169,1886,2090,1745154328812910277
6629990,2010,2144,1916,2122,1745154328812910277
6630990,2002,2116,1964,2135,1745154328812910277
6631990,1992,2096,2032,2136,1745154328812910277
6632990,1980,2053,2076,2122,1745154328812910277
6633990,1966,2018,2144,2106,1745154328812910277
6634990,1963,1991,2213,2067,1745154328812910277
6635990,1954,1953,2265,2027,1745154328812910277
6636990,1957,1921,2315,2000,1745154328812910277
6637990,1974,1891,2338,1976,1745154328812910277
6638990,2000,1876,2344,1957,1745154328812910277
6639991,2026,1881,2325,1952,1745154328812910277
6640991,2050,1896,2291,1969,1745154328812910277
6641991,2066,1924,2245,2002,1745154328812910277
6642991,2079,1957,2189,2035,1745154328812910277
6643991,2084,1992,2117,2061,1745154328812910277
6644991,2085,2025,2051,2084,1745154328812910277
6645991,2084,2054,1987,2100,1745154328812910277
6646991,2072,2080,1948,2113,1745154328812910277
6647991,2060,2105,1925,2131,1745154328812910277
6648991,2035,2128,1932,2157,1745154328867733475
6649991,2014,2149,1954,2186,1745154328867733475
6650991,2001,2165,1990,2202,1745154328867733475
6651992,1988,2169,2029,2195,1745154328867733475
6652992,1980,2156,2063,2176,1745154328867733475
6653992,1978,2128,2085,2165,1745154328867733475
6654992,1982,2084,2117,2147,1745154328867733475
6655992,1992,2020,2147,2116,1745154328867733475
6656992,2005,1944,2177,2091,1745154328867733475
6657992,2026,1874,2196,2067,1745154328867733475
6658992,2041,1828,2200,2048,1745154328867733475
6659992,2059,1806,2206,2018,1745154328867733475
6660992,2070,1812,2209,1988,1745154328867733475
6661992,2080,1828,2217,1968,1745154328867733475
6662992,2091,1851,2210,1951,1745154328867733475
6663993,2097,1890,2191,1942,1745154328867733475
6664993,2099,1938,2154,1946,1745154328867733475
6665993,2102,1996,2106,1960,1745154328867733475
6666993,2101,2049,2063,1989,1745154328867733475
6667993,2106,2088,2032,2026,1745154328867733475
6668993,2106,2112,2021,2058,1745154328867733475
6669993,2101,2122,2021,2072,1745154328867733475
6670993,2086,2120,2027,2078,1745154328867733475
6671993,2078,2115,2048,2077,1745154328867733475
6672993,2065,2098,2068,2072,1745154328867733475
6673993,2057,2068,2096,2062,1745154328867733475
6674993,2050,2026,2136,2053,1745154328867733475
6675994,2054,1976,2185,2044,1745154328867733475
6676994,2061,1928,2226,2032,1745154328867733475
6677994,2074,1887,2244,2033,1745154328867733475
6678994,2088,1860,2242,2038,1745154328867733475
6679994,2109,1848,2224,2043,1745154328867733475
6680994,2128,1856,2195,2042,1745154328867733475
6681994,2139,1884,2142,2050,1745154328867733475
6682994,2145,1930,2096,2049,1745154328867733475
6683994,2153,1990,2050,2035,1745154328867733475
6684994,2137,2043,2011,2038,1745154328867733475
6685994,2131,2108,1978,2036,1745154328867733475
6686994,2164,2172,1896,2088,1745154328867733475
6687995,2154,2209,1858,2006,1745154328867733475
6688995,2125,2270,1860,1997,1745154328867733475
6689995,2040,2191,1857,1984,1745154328867733475
6690995,2026,2156,1884,1988,1745154328867733475
6691995,2016,2106,1914,1974,1745154328867733475
6692995,2010,2042,1940,1963,1745154328867733475
6693995,2005,1981,1966,1955,1745154328867733475
6694995,2003,1937,2010,1947,1745154328867733475
6695995,2004,1924,2065,1937,1745154328867733475
6696995,2002,1926,2114,1928,1745154328867733475
6697995,2011,1954,2160,1936,1745154328867733475
6698995,2030,1951,2170,1953,1745154328867733475
6699996,2049,1962,2156,1990,1745154328867733475
6700996,2077,1979,2126,2025,1745154328867733475
6701996,2108,1994,2082,2041,1745154328867733475
6702996,2131,2018,2032,2023,1745154328867733475
6703996,2142,2053,1980,1977,1745154328867733475
6704996,2138,2101,1933,1932,1745154328867733475
6705996,2128,2152,1888,1905,1745154328867733475
6706996,2110,2197,1859,1907,1745154328934457344
6707996,2097,2227,1872,1941,1745154328934457344
6708996,2080,2237,1912,1986,1745154328934457344
6709996,2072,2225,1969,2029,1745154328934457344
6710997,2067,2193,2024,2064,1745154328934457344
6711997,2066,2153,2076,2091,1745154328934457344
6712997,2066,2105,2121,2111,1745154328934457344
6713997,2068,2048,2158,2125,1745154328934457344
6714997,2070,1984,2198,2129,1745154328934457344
6715997,2075,1925,2235,2122,1745154328934457344
6716997,2079,1883,2257,2133,1745154328934457344
6717997,2089,1856,2254,2132,1745154328934457344
6718997,2093,1852,2225,2125,1745154328934457344
6719997,2109,1866,2178,2115,1745154328934457344
6720997,2115,1897,2100,2099,1745154328934457344
6721997,2128,1942,2010,2080,1745154328934457344
6722997,2132,1994,1917,2057,1745154328934457344
6723998,2128,2061,1829,2030,1745154328934457344
6724998,2115,2125,1749,2016,1745154328934457344
6725998,2094,2184,1690,2032,1745154328934457344
6726998,2072,2230,1670,2073,1745154328934457344
6727998,2057,2260,1701,2131,1745154328934457344
6728998,2041,2262,1768,2193,1745154328934457344
6729998,2032,2250,1861,2252,1745154328934457344
6730998,2019,2221,1952,2280,1745154328934457344
6731998,2009,2189,2035,2272,1745154328934457344
6732998,1997,2158,2101,2220,1745154328934457344
6733998,1994,2122,2156,2137,1745154328934457344
6734999,2000,2078,2212,2049,1745154328934457344
6735999,2013,2019,2262,1964,1745154328934457344
6736999,2038,1962,2299,1897,1745154328934457344
6737999,2066,1908,2317,1846,1745154328934457344
6738999,2090,1869,2304,1816,1745154328934457344
6739999,2108,1850,2270,1797,1745154328934457344
6740999,2122,1859,2219,1805,1745154328934457344
6742000,2137,1893,2169,1822,1745154328934457344
6742999,2139,1926,2154,1895,1745154328934457344
6743999,2154,1966,2015,1915,1745154328934457344
6744999,2147,2007,1956,1925,1745154328934457344
6745999,2141,2043,1884,1972,1745154328934457344
6746999,2144,2089,1840,2018,1745154328934457344
6748000,2132,2126,1818,2061,1745154328934457344
6749000,2116,2145,1824,2092,1745154328934457344
6750000,2098,2151,1849,2107,1745154328934457344
6751000,2083,2140,1891,2106,1745154328934457344
6752000,2069,2120,1945,2101,1745154328934457344
6753000,2061,2089,1990,2080,1745154328934457344
6754000,2059,2056,2041,2050,1745154328934457344
6755000,2059,2018,2092,2015,1745154328934457344
6756000,2058,1984,2130,1982,1745154328934457344
6757000,2061,1961,2150,1954,1745154328934457344
6758000,2065,1945,2141,1944,1745154328934457344
6759001,2064,1955,2110,1953,1745154328934457344
6760001,2062,1978,2062,1978,1745154328934457344
6761001,2060,2017,2004,2017,1745154328934457344
6762001,2064,2054,1954,2060,1745154328934457344
6763001,2074,2090,1923,2088,1745154328934457344
6764001,2081,2121,1905,2101,1745154328934457344
6765001,2086,2153,1888,2113,1745154328989494602
6766001,2082,2187,1864,2138,1745154328989494602
6767001,2072,2219,1856,2152,1745154328989494602
6768001,2048,2248,1865,2152,1745154328989494602
6769001,2018,2256,1903,2141,1745154328989494602
6770001,1994,2242,1950,2121,1745154328989494602
6771001,1979,2205,2008,2101,1745154328989494602
6772002,1978,2142,2054,2070,1745154328989494602
6773002,1986,2061,2098,2050,1745154328989494602
6774002,2009,1988,2139,2034,1745154328989494602
6775002,2028,1932,2184,2019,1745154328989494602
6776002,2044,1889,2224,2003,1745154328989494602
6777002,2059,1858,2253,1978,1745154328989494602
6778002,2075,1842,2258,1950,1745154328989494602
6779002,2093,1840,2238,1933,1745154328989494602
6780002,2113,1850,2208,1928,1745154328989494602
6781002,2125,1877,2158,1929,1745154328989494602
6782002,2137,1909,2113,1949,1745154328989494602
6783002,2146,1947,2073,1976,1745154328989494602
6784003,2152,1992,2027,2006,1745154328989494602
6785003,2160,2040,1980,2033,1745154328989494602
6786003,2162,2091,1928,2052,1745154328989494602
6787003,2156,2137,1880,2057,1745154328989494602
6788003,2152,2170,1850,2050,1745154328989494602
6789003,2156,2194,1846,2040,1745154328989494602
6790003,2176,2200,1854,2024,1745154328989494602
6791003,2202,2192,1866,2005,1745154328989494602
6792003,2229,2172,1896,1985,1745154328989494602
6793003,2255,2143,1920,1961,1745154328989494602
6794003,2282,2108,1958,1931,1745154328989494602
6795003,2301,2067,2005,1915,1745154328989494602
6796004,2317,2017,2067,1914,1745154328989494602
6797004,2325,1968,2124,1927,1745154328989494602
6798004,2339,1940,2166,1940,1745154328989494602
6799004,2331,1914,2149,1949,1745154328989494602
6800004,2276,1907,2157,1946,1745154328989494602
6801005,2221,1914,2124,1962,1745154328989494602
6802004,2169,1938,2076,1978,1745154328989494602
6803004,2096,1970,2033,2009,1745154328989494602
6804004,2021,2011,1981,2062,1745154328989494602
6805005,1949,2051,1924,2140,1745154328989494602
6806004,1878,2089,1865,2227,1745154328989494602
6807004,1814,2124,1813,2306,1745154328989494602
6808005,1756,2151,1787,2345,1745154328989494602
6809005,1702,2172,1782,2344,1745154328989494602
6810005,1664,2198,1797,2360,1745154328989494602
6811005,1657,2190,1820,2217,1745154328989494602
6812005,1586,2149,1856,2129,1745154328989494602
6813005,1577,2129,1913,2050,1745154328989494602
6814005,1589,2104,1984,1989,1745154328989494602
6815005,1611,2064,2075,1958,1745154328989494602
6816005,1650,2012,2152,1957,1745154328989494602
6817005,1694,1969,2232,1976,1745154328989494602
6818005,1759,1940,2270,1985,1745154328989494602
6819005,1815,1929,2274,1982,1745154328989494602
6820006,1868,1940,2237,1969,1745154328989494602
6821006,1913,1966,2183,1944,1745154328989494602
6822006,1951,2004,2120,1925,1745154328989494602
6823006,1985,2049,2065,1916,1745154329055746549
6824006,2017,2090,2018,1915,1745154329055746549
6825006,2048,2136,1972,1932,1745154329055746549
6826006,2069,2176,1937,1977,1745154329055746549
6827006,2089,2211,1923,2056,1745154329055746549
6828006,2120,2236,1929,2126,1745154329055746549
6829006,2114,2245,1947,2165,1745154329055746549
6830006,2093,2256,1967,2177,1745154329055746549
6831006,2070,2261,1978,2175,1745154329055746549
6832007,2036,2254,1981,2132,1745154329055746549
6833007,2013,2241,1986,2076,1745154329055746549
6834007,1994,2212,1993,2011,1745154329055746549
6835007,1975,2185,2004,1958,1745154329055746549
6836007,1963,2139,2028,1937,1745154329055746549
6837007,1971,2090,2051,1933,1745154329055746549
6838007,1996,2022,2066,1925,1745154329055746549
6839007,2025,1974,2074,1914,1745154329055746549
6840007,2065,1941,2077,1910,1745154329055746549
6841007,2107,1914,2074,1930,1745154329055746549
6842007,2150,1900,2074,1982,1745154329055746549
6843007,2201,1898,2084,2049,1745154329055746549
6844008,2235,1909,2084,2122,1745154329055746549
6845008,2260,1944,2085,2202,1745154329055746549
6846008,2272,1987,2083,2268,1745154329055746549
6847008,2277,2034,2085,2305,1745154329055746549
6848008,2268,2078,2095,2307,1745154329055746549
6849008,2258,2102,2117,2286,1745154329055746549
6850008,2257,2116,2146,2248,1745154329055746549
6851008,2253,2110,2177,2204,1745154329055746549
6852008,2253,2092,2206,2160,1745154329055746549
6853008,2250,2068,2228,2117,1745154329055746549
6854008,2235,2032,2245,2085,1745154329055746549
6855009,2220,1997,2269,2059,1745154329055746549
6856009,2195,1962,2298,2048,1745154329055746549
6857009,2168,1928,2302,2028,1745154329055746549
6858009,2142,1908,2300,2018,1745154329055746549
6859009,2117,1906,2278,2001,1745154329055746549
6860009,2080,1902,2224,1981,1745154329055746549
6861009,2050,1925,2174,1965,1745154329055746549
6862009,2011,1960,2112,1953,1745154329055746549
6863009,1972,1998,2057,1947,1745154329055746549
6864009,1935,2042,1995,1951,1745154329055746549
6865009,1901,2091,1933,1966,1745154329055746549
6866009,1922,2194,1887,1992,1745154329055746549
6867009,1846,2184,1838,2025,1745154329055746549
6868010,1826,2195,1813,2053,1745154329055746549
6869010,1809,2213,1811,2083,1745154329055746549
6870010,1793,2222,1820,2100,1745154329055746549
6871010,1776,2224,1837,2108,1745154329055746549
6872010,1769,2212,1859,2102,1745154329055746549
6873010,1772,2194,1882,2094,1745154329055746549
6874010,1787,2172,1908,2088,1745154329055746549
6875010,1819,2132,1946,2090,1745154329055746549
6876010,1870,2081,2004,2093,1745154329055746549
6877010,1945,2012,2067,2084,1745154329055746549
6878010,2031,1945,2121,2068,1745154329055746549
6879010,2112,1884,2156,2051,1745154329055746549
6880011,2193,1836,2164,2039,1745154329055746549
6881011,2254,1797,2152,2040,1745154329101732379
6882011,2297,1772,2125,2060,1745154329101732379
6883011,2318,1772,2086,2074,1745154329101732379
6884011,2314,1773,2053,2084,1745154329101732379
6885011,2289,1802,2010,2098,1745154329101732379
6886011,2244,1851,1967,2107,1745154329101732379
6887011,2196,1903,1937,2114,1745154329101732379
6888011,2137,1955,1929,2110,1745154329101732379
6889011,2078,1996,1938,2097,1745154329101732379
6890011,2023,2021,1963,2069,1745154329101732379
6891011,1977,2032,1997,2051,1745154329101732379
6892012,1940,2031,2028,2053,1745154329101732379
6893012,1913,2025,2051,2060,1745154329101732379
6894012,1899,2017,2068,2064,1745154329101732379
6895012,1901,2006,2083,2043,1745154329101732379
6896012,1924,2000,2101,2004,1745154329101732379
6897012,1972,1998,2109,1965,1745154329101732379
6898012,2035,2003,2110,1926,1745154329101732379
6899012,2114,2020,2097,1898,1745154329101732379
6900012,2202,2046,2091,1881,1745154329101732379
6901012,2284,2079,2076,1864,1745154329101732379
6902012,2349,2114,2057,1854,1745154329101732379
6903012,2391,2152,2035,1857,1745154329101732379
6904013,2402,2184,2009,1876,1745154329101732379
6905013,2390,2217,1974,1913,1745154329101732379
6906013,2349,2244,1939,1961,1745154329101732379
6907013,2282,2265,1915,2011,1745154329101732379
6908013,2194,2286,1906,2057,1745154329101732379
6909013,2091,2297,1916,2092,1745154329101732379
6910013,1988,2300,1939,2114,1745154329101732379
6911013,1896,2285,1977,2132,1745154329101732379
6912013,1821,2261,2015,2138,1745154329101732379
6913013,1763,2228,2049,2146,1745154329101732379
6914013,1724,2194,2082,2139,1745154329101732379
6915014,1707,2153,2111,2110,1745154329101732379
6916014,1697,2102,2135,2065,1745154329101732379
6917014,1709,2073,2160,2021,1745154329101732379
6918015,1741,2053,2140,1955,1745154329101732379
6919014,1762,2060,2117,1925,1745154329101732379
6920014,1806,2094,2085,1906,1745154329101732379
6921014,1869,2133,2056,1909,1745154329101732379
6922014,1955,2172,2043,1925,1745154329101732379
6923014,2066,2189,2042,1960,1745154329101732379
6924014,2195,2206,2051,2032,1745154329101732379
6925014,2321,2219,2086,2118,1745154329101732379
6926014,2429,2241,2033,2179,1745154329101732379
6927014,2517,2272,2073,2236,1745154329101732379
6928015,2574,2302,2084,2270,1745154329101732379
6929015,2611,2355,2058,2276,1745154329101732379
6930015,2613,2275,2057,2281,1745154329101732379
6931015,2597,2248,2093,2282,1745154329101732379
6932015,2559,2216,2109,2265,1745154329101732379
6933015,2493,2167,2134,2235,1745154329101732379
6934015,2392,2113,2138,2185,1745154329101732379
6935015,2271,2049,2159,2136,1745154329101732379
6936015,2152,1994,2186,2093,1745154329101732379
6937015,2033,1937,2198,2051,1745154329101732379
6938015,1937,1888,2189,2018,1745154329101732379
6939015,1845,1851,2163,2005,1745154329164884823
6940016,1784,1824,2124,2003,1745154329164884823
6941016,1740,1813,2074,1996,1745154329164884823
6942016,1712,1830,2020,1992,1745154329164884823
6943016,1698,1880,1977,1997,1745154329164884823
6944016,1700,1959,1929,2005,1745154329164884823
6945016,1715,2056,1886,2025,1745154329164884823
6946016,1741,2157,1849,2035,1745154329164884823
6947016,1769,2243,1828,2060,1745154329164884823
6948016,1797,2302,1821,2075,1745154329164884823
6949016,1825,2349,1836,2089,1745154329164884823
6950016,1850,2384,1861,2097,1745154329164884823
6951016,1872,2402,1889,2107,1745154329164884823
6952017,1894,2385,1916,2120,1745154329164884823
6953017,1917,2338,1952,2125,1745154329164884823
6954017,1937,2269,1987,2118,1745154329164884823
6955017,1947,2198,2030,2097,1745154329164884823
6956017,1956,2137,2084,2065,1745154329164884823
6957017,1961,2086,2126,2026,1745154329164884823
6958017,1976,2039,2163,1996,1745154329164884823
6959017,1990,2002,2185,1969,1745154329164884823
6960017,2002,1982,2187,1945,1745154329164884823
6961017,2020,1976,2181,1931,1745154329164884823
6962017,2034,1990,2159,1929,1745154329164884823
6963017,2053,2023,2132,1933,1745154329164884823
6964018,2075,2075,2096,1940,1745154329164884823
6965018,2091,2142,2049,1947,1745154329164884823
6966018,2096,2221,1995,1952,1745154329164884823
6967018,2092,2288,1957,1952,1745154329164884823
6968018,2080,2325,1940,1950,1745154329164884823
6969018,2063,2330,1943,1945,1745154329164884823
6970018,2035,2320,1954,1934,1745154329164884823
6971018,2016,2313,1976,1908,1745154329164884823
6972018,1993,2297,1994,1872,1745154329164884823
6973018,1986,2301,2018,1833,1745154329164884823
6974020,1978,2266,2021,1784,1745154329164884823
6975018,1982,2246,2044,1760,1745154329164884823
6976019,2016,2228,2072,1754,1745154329164884823
6977019,2077,2204,2078,1778,1745154329164884823
6978019,2141,2239,2137,1845,1745154329164884823
6979020,2208,2142,2064,1893,1745154329164884823
6980019,2266,2105,2052,1960,1745154329164884823
6981019,2315,2061,2009,1990,1745154329164884823
6982019,2329,1996,1972,2019,1745154329164884823
6983019,2329,1942,1945,2048,1745154329164884823
6984019,2309,1901,1923,2069,1745154329164884823
6985019,2290,1885,1910,2099,1745154329164884823
6986019,2285,1885,1917,2130,1745154329164884823
6987019,2280,1898,1937,2161,1745154329164884823
6988020,2271,1911,1979,2179,1745154329164884823
6989020,2246,1923,2028,2189,1745154329164884823
6990020,2213,1934,2080,2181,1745154329164884823
6991020,2172,1938,2124,2164,1745154329164884823
6992020,2132,1940,2168,2152,1745154329164884823
6993020,2100,1950,2190,2136,1745154329164884823
6994020,2065,1971,2213,2125,1745154329164884823
6995020,2029,1988,2241,2106,1745154329164884823
6996020,1997,1993,2269,2080,1745154329164884823
6997020,1971,1988,2290,2044,1745154329224406466
6998020,1950,1981,2291,2011,1745154329224406466
6999020,1931,1987,2267,1977,1745154329224406466
7000021,1916,2006,2225,1948,1745154329224406466
7001021,1907,2033,2176,1923,1745154329224406466
7002021,1905,2073,2127,1912,1745154329224406466
7003021,1901,2109,2078,1912,1745154329224406466
7004021,1904,2154,2028,1923,1745154329224406466
7005021,1907,2206,1978,1954,1745154329224406466
7006021,1912,2257,1931,1994,1745154329224406466
7007021,1915,2313,1899,2037,1745154329224406466
7008021,1926,2359,1883,2080,1745154329224406466
7009021,1938,2398,1889,2120,1745154329224406466
7010021,1956,2426,1913,2149,1745154329224406466
7011022,1979,2442,1949,2164,1745154329224406466
7012022,1995,2442,1989,2163,1745154329224406466
7013022,2002,2424,2020,2149,1745154329224406466
7014022,2000,2392,2062,2125,1745154329224406466
7015022,1993,2351,2111,2096,1745154329224406466
7016022,1983,2297,2157,2070,1745154329224406466
7017022,1980,2241,2194,2049,1745154329224406466
7018022,1986,2190,2209,2026,1745154329224406466
7019022,1996,2153,2202,2006,1745154329224406466
7020022,2013,2134,2181,1985,1745154329224406466
7021022,2032,2129,2146,1954,1745154329224406466
7022022,2044,2131,2107,1907,1745154329224406466
7023022,2054,2141,2074,1858,1745154329224406466
7024023,2061,2153,2028,1810,1745154329224406466
7025023,2064,2166,1989,1792,1745154329224406466
7026023,2069,2180,1951,1809,1745154329224406466
7027023,2069,2182,1930,1859,1745154329224406466
7028023,2068,2162,1932,1930,1745154329224406466
7029023,2049,2123,1955,2004,1745154329224406466
7030023,2022,2085,1985,2073,1745154329224406466
7031023,1994,2050,2028,2096,1745154329224406466
7032023,1961,2020,2050,2106,1745154329224406466
7033024,1939,1995,2073,2061,1745154329224406466
7034023,1915,1966,2090,1984,1745154329224406466
7035024,1901,1925,2112,1901,1745154329224406466
7036024,1896,1868,2133,1842,1745154329224406466
7037024,1940,1803,2169,1824,1745154329224406466
7038025,1949,1769,2226,1802,1745154329224406466
7039024,1996,1674,2168,1808,1745154329224406466
7040024,2053,1635,2168,1857,1745154329224406466
7041024,2110,1625,2155,1912,1745154329224406466
7042024,2144,1641,2131,1979,1745154329224406466
7043024,2166,1673,2101,2042,1745154329224406466
7044024,2190,1723,2075,2101,1745154329224406466
7045024,2188,1781,2032,2136,1745154329224406466
7046024,2199,1852,2008,2162,1745154329224406466
7047024,2209,1920,1972,2173,1745154329224406466
7048025,2205,1971,1957,2176,1745154329224406466
7049025,2182,2001,1955,2177,1745154329224406466
7050025,2154,1996,1964,2181,1745154329224406466
7051025,2126,1971,1976,2177,1745154329224406466
7052025,2091,1936,1992,2158,1745154329224406466
7053025,2057,1902,2009,2129,1745154329224406466
7054025,2014,1872,2026,2083,1745154329224406466
7055025,1968,1844,2057,2051,1745154329278878573
7056025,1922,1820,2095,2035,1745154329278878573
7057025,1880,1802,2139,2040,1745154329278878573
7058025,1859,1791,2173,2056,1745154329278878573
7059025,1852,1784,2197,2074,1745154329278878573
7060026,1865,1785,2209,2087,1745154329278878573
7061026,1884,1800,2210,2099,1745154329278878573
7062026,1912,1820,2198,2107,1745154329278878573
7063026,1938,1846,2177,2114,1745154329278878573
7064026,1960,1877,2138,2117,1745154329278878573
7065026,1981,1912,2092,2129,1745154329278878573
7066026,2002,1953,2039,2136,1745154329278878573
7067026,2014,2012,2000,2129,1745154329278878573
7068026,2017,2066,1979,2106,1745154329278878573
7069026,2005,2103,1977,2078,1745154329278878573
7070026,1985,2113,1989,2065,1745154329278878573
7071026,1962,2100,2016,2056,1745154329278878573
7072027,1947,2073,2054,2058,1745154329278878573
7073027,1940,2026,2097,2058,1745154329278878573
7074027,1938,1962,2141,2057,1745154329278878573
7075027,1940,1883,2188,2058,1745154329278878573
7076027,1946,1814,2224,2066,1745154329278878573
7077027,1962,1765,2242,2074,1745154329278878573
7078027,1992,1731,2248,2088,1745154329278878573
7079027,2031,1713,2233,2105,1745154329278878573
7080027,2069,1704,2205,2133,1745154329278878573
7081027,2109,1700,2182,2168,1745154329278878573
7082027,2144,1704,2148,2192,1745154329278878573
7083027,2170,1726,2112,2209,1745154329278878573
7084028,2189,1762,2078,2216,1745154329278878573
7085028,2196,1805,2037,2222,1745154329278878573
7086028,2196,1862,1998,2220,1745154329278878573
7087028,2180,1914,1970,2213,1745154329278878573
7088028,2152,1958,1959,2188,1745154329278878573
7089028,2110,1998,1966,2153,1745154329278878573
7090028,2062,2016,1992,2117,1745154329278878573
7091030,2018,2020,2020,2083,1745154329278878573
7092028,1979,2004,2051,2061,1745154329278878573
7093028,1965,1984,2081,2053,1745154329278878573
7094028,1972,1952,2104,2028,1745154329278878573
7095028,1984,1926,2134,2024,1745154329278878573
7096029,2012,1897,2163,2017,1745154329278878573
7097029,2041,1869,2177,2072,1745154329278878573
7098029,2124,1867,2173,2026,1745154329278878573
7099029,2074,1860,2160,2059,1745154329278878573
7100029,2089,1900,2140,2096,1745154329278878573
7101029,2098,1956,2114,2121,1745154329278878573
7102029,2100,2016,2080,2141,1745154329278878573
7103029,2095,2091,2056,2170,1745154329278878573
7104029,2088,2129,2016,2199,1745154329278878573
7105029,2073,2169,1982,2249,1745154329278878573
7106029,2061,2211,1948,2298,1745154329278878573
7107030,2042,2251,1921,2339,1745154329278878573
7108030,2021,2283,1908,2360,1745154329278878573
7109030,1994,2306,1913,2354,1745154329278878573
7110030,1973,2310,1929,2313,1745154329278878573
7111030,1961,2298,1953,2253,1745154329278878573
7112030,1954,2265,1974,2184,1745154329278878573
7113030,1958,2211,2003,2115,1745154329339314427
7114030,1973,2124,2036,2043,1745154329339314427
7115030,1983,2008,2072,1980,1745154329339314427
7116030,1989,1900,2100,1926,1745154329339314427
7117030,2001,1811,2117,1883,1745154329339314427
7118030,2010,1762,2113,1852,1745154329339314427
7119030,2014,1748,2094,1832,1745154329339314427
7120031,2018,1766,2065,1817,1745154329339314427
7121031,2016,1812,2027,1816,1745154329339314427
7122031,2014,1881,1985,1829,1745154329339314427
7123031,2012,1940,1948,1859,1745154329339314427
7124031,2025,1986,1915,1910,1745154329339314427
7125031,2052,2020,1882,1969,1745154329339314427
7126031,2083,2058,1858,2025,1745154329339314427
7127031,2105,2100,1841,2077,1745154329339314427
7128031,2113,2148,1840,2110,1745154329339314427
7129031,2100,2191,1856,2139,1745154329339314427
7130031,2074,2217,1886,2161,1745154329339314427
7131031,2036,2221,1923,2169,1745154329339314427
7132032,2000,2205,1962,2173,1745154329339314427
7133033,1966,2162,1995,2171,1745154329339314427
7134032,1940,2092,2031,2160,1745154329339314427
7135032,1930,2006,2078,2139,1745154329339314427
7136034,1930,1912,2120,2106,1745154329339314427
7137032,1946,1803,2150,2070,1745154329339314427
7138032,1965,1704,2171,2053,1745154329339314427
7139032,2000,1627,2177,2036,1745154329339314427
7140032,2030,1602,2171,2020,1745154329339314427
7141032,2062,1630,2156,2006,1745154329339314427
7142032,2088,1708,2137,2005,1745154329339314427
7143032,2114,1812,2114,2016,1745154329339314427
7144033,2140,1924,2084,2016,1745154329339314427
7145033,2164,2027,2043,2002,1745154329339314427
7146033,2186,2113,2012,1989,1745154329339314427
7147033,2205,2177,1987,1993,1745154329339314427
7148033,2221,2219,1969,2002,1745154329339314427
7149033,2228,2246,1974,2012,1745154329339314427
7150033,2227,2261,1981,2024,1745154329339314427
7151033,2220,2271,1998,2041,1745154329339314427
7152033,2222,2339,2074,2041,1745154329339314427
7153033,2198,2235,2033,2024,1745154329339314427
7154033,2185,2190,2057,2029,1745154329339314427
7155034,2176,2133,2086,2032,1745154329339314427
7156034,2161,2056,2104,2032,1745154329339314427
7157034,2148,1965,2110,2076,1745154329339314427
7158034,2147,1899,2096,2024,1745154329339314427
7159034,2145,1864,2069,2015,1745154329339314427
7160034,2158,1868,2033,2004,1745154329339314427
7161034,2173,1900,1989,1990,1745154329339314427
7162034,2185,1988,1941,1972,1745154329339314427
7163034,2181,2093,1896,1956,1745154329339314427
7164034,2170,2196,1860,1949,1745154329339314427
7165034,2150,2284,1822,1960,1745154329339314427
7166034,2126,2355,1797,1987,1745154329339314427
7167034,2097,2413,1779,2020,1745154329339314427
7168035,2073,2464,1783,2061,1745154329339314427
7169035,2042,2488,1798,2101,1745154329339314427
7170035,2027,2486,1826,2140,1745154329339314427
7171035,2019,2454,1850,2166,1745154329406982455
7172035,2016,2405,1886,2179,1745154329406982455
7173035,2020,2348,1912,2177,1745154329406982455
7174035,2024,2292,1935,2175,1745154329406982455
7175035,2028,2233,1966,2177,1745154329406982455
7176035,2035,2169,1996,2171,1745154329406982455
7177035,2051,2108,2019,2161,1745154329406982455
7178035,2068,2057,2034,2139,1745154329406982455
7179035,2077,2024,2038,2118,1745154329406982455
7180036,2081,2020,2027,2101,1745154329406982455
7181036,2082,2035,2013,2094,1745154329406982455
7182036,2072,2068,1992,2096,1745154329406982455
7183036,2072,2114,1974,2109,1745154329406982455
7184036,2083,2162,1948,2123,1745154329406982455
7185036,2116,2222,1917,2133,1745154329406982455
7186036,2162,2294,1890,2137,1745154329406982455
7187036,2207,2355,1866,2135,1745154329406982455
7188036,2248,2403,1856,2126,1745154329406982455
7189036,2276,2428,1850,2105,1745154329406982455
7190036,2287,2434,1852,2084,1745154329406982455
7191036,2274,2424,1858,2066,1745154329406982455
7192037,2241,2398,1865,2064,1745154329406982455
7193037,2188,2364,1867,2065,1745154329406982455
7194037,2121,2315,1875,2072,1745154329406982455
7195037,2050,2263,1886,2065,1745154329406982455
7196037,1972,2205,1904,2064,1745154329406982455
7197037,1918,2146,1916,2056,1745154329406982455
7198037,1881,2075,1929,2057,1745154329406982455
7199037,1858,1990,1940,2064,1745154329406982455
7200037,1858,1921,1956,2087,1745154329406982455
7201037,1877,1872,1971,2106,1745154329406982455
7202037,1904,1853,1988,2114,1745154329406982455
7203037,1936,1857,1997,2115,1745154329406982455
7204038,1964,1881,1998,2120,1745154329406982455
7205038,1987,1921,1989,2125,1745154329406982455
7206038,2005,1966,1969,2147,1745154329406982455
7207038,2018,2006,1938,2180,1745154329406982455
7208038,2033,2035,1899,2193,1745154329406982455
7209038,2021,2034,1857,2200,1745154329406982455
7210038,2009,2030,1820,2198,1745154329406982455
7211038,2018,2004,1774,2199,1745154329406982455
7212038,2022,1983,1737,2241,1745154329406982455
7213038,2036,1955,1690,2157,1745154329406982455
7214038,2028,1914,1649,2136,1745154329406982455
7215038,2041,1882,1622,2107,1745154329406982455
7216039,2049,1843,1590,2075,1745154329406982455
7217039,2059,1805,1557,2042,1745154329406982455
7218039,2072,1791,1529,2020,1745154329406982455
7219039,2066,1775,1491,2002,1745154329406982455
7220039,2061,1791,1458,2013,1745154329406982455
7221039,2058,1832,1429,2040,1745154329406982455
7222039,2058,1885,1412,2082,1745154329406982455
7223039,2053,1949,1400,2123,1745154329406982455
7224039,2048,2006,1387,2160,1745154329406982455
7225039,2044,2060,1373,2184,1745154329406982455
7226039,2045,2105,1357,2197,1745154329406982455
7227039,2043,2136,1345,2204,1745154329406982455
7228040,2036,2156,1347,2205,1745154329406982455
7229040,2012,2161,1355,2205,1745154329457026633
7230040,1984,2144,1378,2193,1745154329457026633
7231040,1952,2112,1412,2173,1745154329457026633
7232040,1926,2063,1455,2154,1745154329457026633
7233040,1911,2003,1506,2144,1745154329457026633
7234040,1903,1942,1555,2137,1745154329457026633
7235040,1901,1872,1614,2120,1745154329457026633
7236040,1908,1797,1669,2092,1745154329457026633
7237040,1925,1726,1705,2060,1745154329457026633
7238040,1957,1670,1726,2037,1745154329457026633
7239040,1992,1640,1723,2026,1745154329457026633
7240041,2048,1630,1704,2019,1745154329457026633
7241041,2101,1648,1676,2010,1745154329457026633
7242041,2152,1691,1650,2002,1745154329457026633
7243041,2185,1753,1625,1997,1745154329457026633
7244041,2192,1831,1602,1987,1745154329457026633
7245041,2170,1916,1582,1984,1745154329457026633
7246041,2124,2008,1558,1973,1745154329457026633
7247041,2066,2092,1537,1962,1745154329457026633
7248041,1990,2156,1532,1951,1745154329457026633
7249041,1911,2205,1528,1940,1745154329457026633
7250041,1837,2232,1535,1932,1745154329457026633
7251041,1779,2244,1538,1930,1745154329457026633
7252042,1731,2249,1555,1935,1745154329457026633
7253042,1712,2241,1577,1937,1745154329457026633
7254042,1713,2219,1608,1944,1745154329457026633
7255042,1737,2189,1648,1959,1745154329457026633
7256042,1781,2155,1694,1972,1745154329457026633
7257042,1832,2124,1739,1986,1745154329457026633
7258042,1890,2099,1780,1996,1745154329457026633
7259042,1949,2081,1815,2018,1745154329457026633
7260042,2002,2075,1848,2050,1745154329457026633
7261042,2053,2078,1885,2092,1745154329457026633
7262042,2094,2093,1925,2129,1745154329457026633
7263042,2122,2121,1962,2138,1745154329457026633
7264043,2138,2153,1984,2135,1745154329457026633
7265043,2136,2200,1995,2122,1745154329457026633
7266043,2118,2252,2001,2108,1745154329457026633
7267043,2087,2285,2005,2099,1745154329457026633
7268043,2051,2311,2027,2093,1745154329457026633
7269043,2009,2326,2044,2072,1745154329457026633
7270043,1953,2299,2101,2070,1745154329457026633
7271043,1914,2272,2114,2062,1745154329457026633
7272043,1876,2241,2156,2060,1745154329457026633
7273043,1856,2196,2197,2050,1745154329457026633
7274043,1844,2150,2230,2027,1745154329457026633
7275043,1847,2097,2262,1997,1745154329457026633
7276044,1862,2044,2293,1965,1745154329457026633
7277044,1893,2012,2303,1932,1745154329457026633
7278044,1936,1974,2296,1906,1745154329457026633
7279044,1977,1972,2285,1886,1745154329457026633
7280044,2022,1994,2320,1870,1745154329457026633
7281044,2054,2003,2219,1830,1745154329457026633
7282044,2073,2052,2202,1812,1745154329457026633
7283044,2096,2105,2181,1789,1745154329457026633
7284044,2105,2162,2162,1765,1745154329457026633
7285044,2098,2220,2139,1749,1745154329457026633
7286044,2096,2286,2121,1764,1745154329457026633
7287044,2053,2339,2093,1801,1745154329515320840
7288045,2028,2388,2081,1856,1745154329515320840
7289045,1999,2419,2082,1917,1745154329515320840
7290045,1973,2432,2097,1974,1745154329515320840
7291045,1955,2446,2130,2036,1745154329515320840
7292045,1947,2463,2170,2100,1745154329515320840
7293045,1942,2473,2219,2160,1745154329515320840
7294045,1947,2468,2280,2202,1745154329515320840
7295045,1957,2445,2349,2216,1745154329515320840
7296045,1973,2402,2425,2204,1745154329515320840
7297045,1995,2357,2490,2182,1745154329515320840
7298045,2022,2320,2541,2161,1745154329515320840
7299045,2066,2296,2565,2139,1745154329515320840
7300046,2112,2291,2572,2115,1745154329515320840
7301046,2154,2297,2559,2092,1745154329515320840
7302046,2186,2320,2528,2068,1745154329515320840
7303046,2201,2345,2493,2040,1745154329515320840
7304046,2201,2379,2443,2017,1745154329515320840
7305046,2198,2420,2388,2000,1745154329515320840
7306046,2188,2465,2341,1989,1745154329515320840
7307046,2169,2501,2300,1987,1745154329515320840
7308046,2147,2518,2269,2000,1745154329515320840
7309046,2123,2518,2259,2026,1745154329515320840
7310046,2097,2485,2257,2061,1745154329515320840
7311046,2082,2445,2269,2091,1745154329515320840
7312047,2068,2379,2285,2110,1745154329515320840
7313047,2063,2302,2303,2108,1745154329515320840
7314047,2058,2223,2330,2084,1745154329515320840
7315047,2056,2141,2360,2049,1745154329515320840
7316047,2051,2062,2385,2008,1745154329515320840
7317047,2051,1992,2409,1977,1745154329515320840
7318047,2056,1941,2421,1953,1745154329515320840
7319047,2067,1908,2426,1940,1745154329515320840
7320047,2081,1898,2420,1946,1745154329515320840
7321047,2092,1905,2411,1965,1745154329515320840
7322047,2107,1924,2401,2004,1745154329515320840
7323048,2122,1947,2393,2048,1745154329515320840
7324048,2137,1980,2381,2088,1745154329515320840
7325048,2154,2021,2354,2109,1745154329515320840
7326048,2157,2066,2315,2130,1745154329515320840
7327048,2163,2108,2258,2149,1745154329515320840
7328048,2160,2121,2171,2141,1745154329515320840
7329048,2155,2127,2096,2139,1745154329515320840
7330048,2152,2107,2082,2126,1745154329515320840
7331048,2146,2062,1946,2077,1745154329515320840
7332048,2130,2006,1884,2053,1745154329515320840
7333048,2129,1946,1829,2031,1745154329515320840
7334048,2124,1874,1782,2020,1745154329515320840
7335048,2117,1797,1749,2020,1745154329515320840
7336049,2112,1728,1739,2020,1745154329515320840
7337049,2105,1642,1728,2024,1745154329515320840
7338049,2113,1584,1729,2035,1745154329515320840
7339049,2114,1545,1733,2044,1745154329515320840
7340049,2128,1531,1736,2049,1745154329515320840
7341049,2147,1530,1733,2050,1745154329515320840
7342049,2168,1537,1737,2053,1745154329515320840
7343049,2188,1563,1744,2058,1745154329515320840
7344049,2212,1593,1747,2065,1745154329515320840
7345049,2234,1628,1740,2069,1745154329572245008
7346049,2250,1673,1731,2079,1745154329572245008
7347049,2264,1712,1722,2093,1745154329572245008
7348050,2268,1745,1721,2112,1745154329572245008
7349050,2261,1764,1724,2122,1745154329572245008
7350050,2252,1764,1735,2129,1745154329572245008
7351050,2239,1742,1750,2131,1745154329572245008
7352050,2228,1702,1777,2128,1745154329572245008
7353050,2222,1651,1818,2121,1745154329572245008
7354050,2211,1594,1876,2112,1745154329572245008
7355050,2199,1535,1953,2097,1745154329572245008
7356050,2182,1469,2030,2078,1745154329572245008
7357050,2168,1417,2100,2048,1745154329572245008
7358050,2153,1378,2155,2013,1745154329572245008
7359050,2137,1361,2198,1979,1745154329572245008
7360051,2124,1368,2230,1949,1745154329572245008
7361051,2105,1398,2256,1924,1745154329572245008
7362051,2089,1451,2280,1906,1745154329572245008
7363051,2072,1513,2291,1896,1745154329572245008
7364051,2057,1578,2298,1901,1745154329572245008
7365051,2042,1664,2298,1922,1745154329572245008
7366051,2028,1746,2286,1960,1745154329572245008
7367051,2017,1816,2267,2000,1745154329572245008
7368051,1998,1866,2237,2041,1745154329572245008
7369051,1980,1897,2223,2074,1745154329572245008
7370051,1959,1902,2219,2091,1745154329572245008
7371051,1941,1885,2260,2096,1745154329572245008
7372052,1928,1861,2325,2094,1745154329572245008
7373052,1915,1831,2398,2091,1745154329572245008
7374052,1909,1797,2466,2080,1745154329572245008
7375052,1911,1760,2513,2065,1745154329572245008
7376052,1914,1713,2549,2048,1745154329572245008
7377052,1917,1672,2559,2030,1745154329572245008
7378053,1932,1645,2566,2015,1745154329572245008
7379052,1939,1633,2574,2000,1745154329572245008
7380052,1949,1637,2573,1978,1745154329572245008
7381052,1961,1657,2557,1973,1745154329572245008
7382052,1969,1694,2510,1973,1745154329572245008
7383053,1973,1742,2444,1974,1745154329572245008
7384053,1977,1787,2369,1982,1745154329572245008
7385053,1980,1852,2302,2006,1745154329572245008
7386053,1990,1922,2248,2014,1745154329572245008
7387053,1981,1980,2201,2027,1745154329572245008
7388053,1980,2032,2176,2099,1745154329572245008
7389053,1985,2066,2165,2036,1745154329572245008
7390053,1958,2065,2178,2038,1745154329572245008
7391053,1961,2052,2205,2038,1745154329572245008
7392053,1957,2017,2231,2038,1745154329572245008
7393053,1958,1976,2252,2034,1745154329572245008
7394053,1969,1932,2267,2031,1745154329572245008
7395053,1956,1865,2277,2016,1745154329572245008
7396054,1953,1806,2296,2002,1745154329572245008
7397054,1949,1753,2298,1979,1745154329572245008
7398054,1947,1710,2277,1950,1745154329572245008
7399054,1934,1699,2242,1917,1745154329572245008
7400054,1924,1704,2194,1886,1745154329572245008
7401054,1914,1738,2157,1869,1745154329572245008
7402054,1905,1784,2142,1866,1745154329572245008
7403054,1897,1842,2150,1870,1745154329631935973
7404054,1891,1912,2168,1886,1745154329631935973
7405054,1890,1994,2176,1916,1745154329631935973
7406054,1890,2081,2165,1954,1745154329631935973
7407055,1896,2152,2152,1997,1745154329631935973
7408055,1909,2197,2139,2035,1745154329631935973
7409055,1916,2216,2146,2067,1745154329631935973
7410055,1933,2209,2179,2084,1745154329631935973
7411055,1949,2176,2235,2089,1745154329631935973
7412055,1970,2125,2312,2093,1745154329631935973
7413055,1992,2068,2391,2096,1745154329631935973
7414055,2016,2000,2457,2098,1745154329631935973
7415055,2038,1930,2512,2099,1745154329631935973
7416055,2056,1856,2547,2097,1745154329631935973
7417055,2065,1789,2559,2084,1745154329631935973
7418055,2066,1744,2558,2070,1745154329631935973
7419055,2062,1723,2523,2058,1745154329631935973
7420056,2057,1728,2457,2041,1745154329631935973
7421056,2042,1757,2372,2031,1745154329631935973
7422056,2027,1805,2283,2024,1745154329631935973
7423056,2014,1865,2203,2014,1745154329631935973
7424056,1996,1931,2132,2005,1745154329631935973
7425056,1982,2010,2074,1999,1745154329631935973
7426056,1971,2094,2028,1998,1745154329631935973
7427056,1962,2168,1999,2007,1745154329631935973
7428056,1958,2220,1990,2022,1745154329631935973
7429056,1960,2241,2005,2041,1745154329631935973
7430056,1965,2236,2035,2064,1745154329631935973
7431056,1970,2208,2074,2080,1745154329631935973
7432057,1971,2160,2122,2093,1745154329631935973
7433057,1972,2098,2177,2096,1745154329631935973
7434057,1973,2028,2235,2094,1745154329631935973
7435057,1974,1946,2296,2082,1745154329631935973
7436057,1981,1864,2355,2067,1745154329631935973
7437057,1992,1792,2410,2034,1745154329631935973
7438057,1999,1737,2456,2011,1745154329631935973
7439057,2009,1713,2480,1980,1745154329631935973
7440057,2014,1715,2490,1956,1745154329631935973
7441057,2019,1744,2480,1946,1745154329631935973
7442057,2019,1788,2456,1939,1745154329631935973
7443058,2015,1848,2432,1951,1745154329631935973
7444058,2016,1925,2421,2004,1745154329631935973
7445058,2063,2004,2390,2035,1745154329631935973
7446058,2002,2076,2365,2001,1745154329631935973
7447059,1982,2144,2358,2026,1745154329631935973
7448058,1985,2202,2361,2053,1745154329631935973
7449058,1976,2233,2364,2052,1745154329631935973
7450058,1962,2236,2374,2053,1745154329631935973
7451058,1965,2224,2395,2049,1745154329631935973
7452058,1932,2176,2404,2030,1745154329631935973
7453058,1915,2133,2426,2021,1745154329631935973
7454058,1905,2082,2451,2008,1745154329631935973
7455058,1893,2016,2483,1998,1745154329631935973
7456059,1881,1948,2519,1989,1745154329631935973
7457059,1869,1890,2553,1981,1745154329631935973
7458059,1863,1854,2568,1970,1745154329631935973
7459059,1856,1844,2580,1957,1745154329631935973
7460059,1850,1860,2569,1942,1745154329631935973
7461059,1838,1898,2559,1925,1745154329688168792
7462059,1824,1950,2549,1910,1745154329688168792
7463059,1805,2009,2525,1905,1745154329688168792
7464059,1785,2080,2496,1908,1745154329688168792
7465059,1760,2163,2457,1920,1745154329688168792
7466059,1734,2250,2411,1942,1745154329688168792
7467061,1712,2328,2370,1970,1745154329688168792
7468060,1682,2383,2339,2004,1745154329688168792
7469060,1644,2415,2321,2028,1745154329688168792
7470060,1617,2422,2312,2039,1745154329688168792
7471060,1595,2404,2312,2035,1745154329688168792
7472060,1577,2368,2316,2018,1745154329688168792
7473060,1569,2330,2336,1996,1745154329688168792
7474060,1566,2281,2365,1975,1745154329688168792
7475060,1571,2225,2399,1958,1745154329688168792
7476060,1582,2154,2426,1950,1745154329688168792
7477060,1603,2099,2435,1948,1745154329688168792
7478060,1633,2059,2426,1962,1745154329688168792
7479060,1668,2040,2394,1986,1745154329688168792
7480061,1713,2043,2355,2004,1745154329688168792
7481061,1765,2065,2309,2017,1745154329688168792
7482061,1814,2098,2273,2019,1745154329688168792
7483061,1869,2146,2241,2016,1745154329688168792
7484061,1918,2204,2226,2009,1745154329688168792
7485061,1961,2278,2213,2004,1745154329688168792
7486061,1998,2364,2188,2009,1745154329688168792
7487061,2029,2444,2159,2022,1745154329688168792
7488061,2055,2503,2134,2039,1745154329688168792
7489061,2075,2527,2113,2053,1745154329688168792
7490061,2091,2534,2097,2068,1745154329688168792
7491061,2109,2513,2086,2076,1745154329688168792
7492062,2124,2478,2091,2075,1745154329688168792
7493062,2142,2433,2106,2069,1745154329688168792
7494062,2162,2376,2134,2054,1745154329688168792
7495062,2184,2297,2171,2036,1745154329688168792
7496062,2209,2224,2212,2019,1745154329688168792
7497062,2236,2152,2249,2002,1745154329688168792
7498062,2267,2099,2288,1987,1745154329688168792
7499062,2296,2071,2316,1979,1745154329688168792
7500062,2329,2074,2339,1974,1745154329688168792
7501062,2352,2093,2361,1980,1745154329688168792
7502062,2392,2140,2380,1966,1745154329688168792
7503063,2406,2185,2365,1989,1745154329688168792
7504063,2429,2258,2346,2036,1745154329688168792
7505063,2444,2330,2384,2021,1745154329688168792
7506063,2446,2406,2289,2027,1745154329688168792
7507064,2446,2484,2271,2057,1745154329688168792
7508063,2451,2544,2251,2076,1745154329688168792
7509063,2446,2562,2224,2089,1745154329688168792
7510063,2437,2560,2191,2137,1745154329688168792
7511063,2432,2542,2170,2091,1745154329688168792
7512063,2412,2486,2138,2083,1745154329688168792
7513063,2406,2424,2136,2072,1745154329688168792
7514063,2397,2349,2144,2050,1745154329688168792
7515063,2393,2256,2169,2023,1745154329688168792
7516064,2389,2160,2195,1988,1745154329688168792
7517064,2387,2076,2217,1950,1745154329688168792
7518064,2392,2007,2220,1917,1745154329688168792
7519064,2392,1971,2194,1893,1745154329748625792
7520064,2401,1957,2140,1877,1745154329748625792
7521064,2414,1964,2068,1868,1745154329748625792
7522064,2432,1992,1986,1866,1745154329748625792
7523064,2446,2029,1901,1867,1745154329748625792
7524064,2452,2083,1822,1880,1745154329748625792
7525064,2443,2152,1747,1902,1745154329748625792
7526064,2426,2226,1682,1932,1745154329748625792
7527064,2397,2299,1636,1968,1745154329748625792
7528065,2359,2348,1616,2006,1745154329748625792
7529065,2317,2372,1619,2038,1745154329748625792
7530065,2277,2367,1642,2066,1745154329748625792
7531065,2246,2334,1677,2085,1745154329748625792
7532065,2215,2284,1711,2100,1745154329748625792
7533065,2193,2222,1740,2113,1745154329748625792
7534065,2176,2149,1772,2118,1745154329748625792
7535065,2169,2066,1802,2116,1745154329748625792
7536065,2171,1978,1832,2112,1745154329748625792
7537065,2184,1901,1870,2099,1745154329748625792
7538065,2197,1845,1902,2094,1745154329748625792
7539066,2216,1819,1931,2088,1745154329748625792
7540066,2233,1805,1944,2090,1745154329748625792
7541066,2251,1796,1946,2094,1745154329748625792
7542066,2267,1790,1938,2099,1745154329748625792
7543066,2276,1800,1921,2102,1745154329748625792
7544066,2287,1842,1892,2109,1745154329748625792
7545066,2290,1920,1864,2125,1745154329748625792
7546066,2291,2024,1829,2141,1745154329748625792
7547066,2286,2131,1795,2152,1745154329748625792
7548066,2277,2218,1766,2157,1745154329748625792
7549066,2267,2273,1750,2153,1745154329748625792
7550066,2251,2296,1746,2144,1745154329748625792
7551066,2236,2293,1750,2136,1745154329748625792
7552067,2222,2274,1752,2125,1745154329748625792
7553067,2206,2238,1746,2120,1745154329748625792
7554067,2193,2197,1746,2119,1745154329748625792
7555067,2178,2120,1756,2112,1745154329748625792
7556067,2167,2054,1781,2104,1745154329748625792
7557067,2162,1972,1811,2098,1745154329748625792
7558067,2161,1914,1841,2100,1745154329748625792
7559067,2172,1879,1867,2094,1745154329748625792
7560067,2184,1872,1892,2099,1745154329748625792
7561067,2202,1904,1951,2124,1745154329748625792
7562067,2212,1932,1896,2098,1745154329748625792
7563067,2202,1985,1891,2107,1745154329748625792
7564068,2273,2069,1874,2110,1745154329748625792
7565068,2209,2130,1854,2125,1745154329748625792
7566068,2216,2227,1848,2144,1745154329748625792
7567068,2225,2315,1846,2155,1745154329748625792
7568068,2218,2371,1851,2161,1745154329748625792
7569068,2210,2405,1872,2158,1745154329748625792
7570068,2202,2422,1904,2140,1745154329748625792
7571068,2194,2408,1940,2110,1745154329748625792
7572068,2188,2372,1980,2081,1745154329748625792
7573068,2181,2319,2021,2054,1745154329748625792
7574068,2178,2253,2064,2031,1745154329748625792
7575068,2173,2172,2104,2016,1745154329748625792
7576069,2171,2083,2144,2009,1745154329748625792
7577069,2169,2002,2178,2007,1745154329805207723
7578069,2168,1941,2188,2005,1745154329805207723
7579069,2169,1905,2172,2012,1745154329805207723
7580069,2171,1897,2133,2018,1745154329805207723
7581069,2178,1912,2077,2021,1745154329805207723
7582069,2179,1947,2014,2027,1745154329805207723
7583069,2180,1990,1957,2035,1745154329805207723
7584069,2176,2043,1912,2051,1745154329805207723
7585069,2170,2113,1877,2070,1745154329805207723
7586069,2162,2190,1855,2094,1745154329805207723
7587069,2153,2261,1841,2112,1745154329805207723
7588070,2142,2312,1838,2122,1745154329805207723
7589070,2127,2340,1854,2123,1745154329805207723
7590070,2115,2342,1890,2117,1745154329805207723
7591070,2105,2320,1929,2107,1745154329805207723
7592070,2092,2276,1971,2093,1745154329805207723
7593070,2078,2220,2019,2089,1745154329805207723
7594070,2081,2146,2061,2083,1745154329805207723
7595070,2079,2057,2098,2072,1745154329805207723
7596070,2077,1956,2127,2056,1745154329805207723
7597070,2080,1874,2145,2034,1745154329805207723
7598070,2089,1821,2144,2018,1745154329805207723
7599070,2096,1802,2133,2009,1745154329805207723
7600071,2105,1814,2112,1994,1745154329805207723
7601071,2112,1851,2084,1985,1745154329805207723
7602071,2116,1908,2060,1981,1745154329805207723
7603071,2118,1978,2029,1986,1745154329805207723
7604071,2121,2065,1996,1994,1745154329805207723
7605071,2120,2154,1960,2008,1745154329805207723
7606071,2110,2248,1921,2027,1745154329805207723
7607071,2100,2332,1891,2050,1745154329805207723
7608071,2092,2394,1875,2069,1745154329805207723
7609071,2084,2428,1873,2082,1745154329805207723
7610071,2076,2436,1877,2091,1745154329805207723
7611071,2068,2417,1883,2096,1745154329805207723
7612072,2060,2384,1890,2095,1745154329805207723
7613072,2053,2342,1900,2088,1745154329805207723
7614072,2048,2285,1918,2072,1745154329805207723
7615072,2040,2210,1944,2056,1745154329805207723
7616072,2040,2131,1969,2035,1745154329805207723
7617073,2048,2065,1995,2020,1745154329805207723
7618072,2042,2000,2011,2001,1745154329805207723
7619072,2050,1990,2021,1994,1745154329805207723
7620074,2052,1987,2028,1988,1745154329805207723
7621072,2056,2014,2028,1996,1745154329805207723
7622072,2106,2063,2032,1993,1745154329805207723
7623072,2040,2101,2028,2005,1745154329805207723
7624073,2040,2170,2035,2018,1745154329805207723
7625073,2043,2252,2034,2040,1745154329805207723
7626073,2041,2332,2027,2057,1745154329805207723
7627073,2041,2414,2026,2068,1745154329805207723
7628073,2039,2458,2007,2072,1745154329805207723
7629073,2028,2476,2010,2083,1745154329805207723
7630073,2028,2477,2026,2089,1745154329805207723
7631073,2024,2449,2056,2090,1745154329805207723
7632073,2021,2410,2092,2088,1745154329805207723
7633073,2022,2356,2133,2083,1745154329805207723
7634073,2021,2296,2171,2078,1745154329805207723
7635073,2026,2220,2205,2072,1745154329882609047
7636074,2027,2138,2227,2066,1745154329882609047
7637074,2030,2067,2238,2059,1745154329882609047
7638074,2038,2014,2226,2059,1745154329882609047
7639074,2042,1994,2212,2059,1745154329882609047
7640074,2050,1998,2200,2065,1745154329882609047
7641074,2052,2022,2177,2072,1745154329882609047
7642074,2054,2065,2153,2081,1745154329882609047
7643074,2052,2112,2128,2093,1745154329882609047
7644074,2049,2168,2104,2101,1745154329882609047
7645074,2043,2238,2079,2114,1745154329882609047
7646074,2039,2317,2052,2124,1745154329882609047
7647074,2035,2389,2036,2133,1745154329882609047
7648075,2028,2436,2021,2143,1745154329882609047
7649075,2020,2459,2022,2143,1745154329882609047
7650075,2014,2457,2032,2143,1745154329882609047
7651075,2010,2437,2058,2137,1745154329882609047
7652075,2002,2402,2085,2124,1745154329882609047
7653075,1995,2363,2115,2107,1745154329882609047
7654075,1985,2317,2153,2087,1745154329882609047
7655075,1974,2260,2189,2068,1745154329882609047
7656075,1963,2192,2221,2053,1745154329882609047
7657075,1954,2128,2244,2037,1745154329882609047
7658075,1949,2070,2245,2029,1745154329882609047
7659075,1947,2016,2235,2024,1745154329882609047
7660076,1947,1988,2216,2026,1745154329882609047
7661076,1947,1985,2192,2029,1745154329882609047
7662076,1949,2005,2169,2033,1745154329882609047
7663076,1950,2049,2151,2041,1745154329882609047
7664076,1954,2106,2133,2049,1745154329882609047
7665076,1953,2180,2120,2059,1745154329882609047
7666076,1951,2263,2108,2067,1745154329882609047
7667076,1945,2332,2089,2077,1745154329882609047
7668076,1936,2381,2064,2086,1745154329882609047
7669076,1928,2401,2035,2090,1745154329882609047
7670076,1916,2394,2014,2097,1745154329882609047
7671076,1907,2365,1999,2101,1745154329882609047
7672077,1894,2320,1998,2104,1745154329882609047
7673077,1882,2263,2005,2104,1745154329882609047
7674077,1878,2193,2017,2102,1745154329882609047
7675077,1876,2104,2032,2094,1745154329882609047
7676077,1877,2009,2043,2079,1745154329882609047
7677077,1882,1932,2065,2074,1745154329882609047
7678077,1897,1881,2085,2061,1745154329882609047
7679077,1889,1841,2077,2036,1745154329882609047
7680077,1893,1837,2069,2055,1745154329882609047
7681077,1908,1870,2104,2070,1745154329882609047
7682077,1914,1891,2045,2001,1745154329882609047
7683077,1907,1940,2034,2004,1745154329882609047
7684078,1923,2010,2021,2008,1745154329882609047
7685078,1915,2083,1991,2018,1745154329882609047
7686078,1922,2169,1968,2036,1745154329882609047
7687078,1922,2240,1951,2056,1745154329882609047
7688078,1923,2287,1936,2066,1745154329882609047
7689078,1915,2304,1940,2083,1745154329882609047
7690078,1908,2291,1956,2092,1745154329882609047
7691078,1898,2248,1979,2100,1745154329882609047
7692078,1892,2188,2002,2109,1745154329882609047
7693078,1890,2120,2032,2112,1745154329922083270
7694078,1886,2050,2059,2108,1745154329922083270
7695079,1886,1985,2089,2100,1745154329922083270
7696079,1890,1953,2124,2088,1745154329922083270
7697079,1896,1942,2149,2071,1745154329922083270
