timestamp,emg0,emg1,emg2,emg3,pkt_time_ns
11215172,2129,1846,2038,1962,1745188045576097089
11216169,2108,1865,2042,1971,1745188045576097089
11217169,2092,1907,2048,1989,1745188045576097089
11218169,2068,1966,2051,2015,1745188045576097089
11219169,2041,2030,2052,2048,1745188045576097089
11220169,2013,2104,2052,2080,1745188045576097089
11221169,1988,2165,2053,2108,1745188045576097089
11222170,1971,2215,2051,2131,1745188045576097089
11223170,1962,2248,2048,2144,1745188045576097089
11224170,1962,2261,2041,2145,1745188045576097089
11225170,1969,2258,2035,2136,1745188045576097089
11226170,1984,2240,2031,2123,1745188045576097089
11227170,2006,2205,2026,2103,1745188045576097089
11228170,2030,2152,2027,2082,1745188045576097089
11229170,2056,2093,2027,2061,1745188045576097089
11230170,2077,2037,2029,2041,1745188045576097089
11231170,2095,1996,2031,2026,1745188045576097089
11232170,2102,1968,2033,2016,1745188045576097089
11233170,2107,1953,2035,2010,1745188045576097089
11234171,2105,1950,2037,2011,1745188045576097089
11235171,2098,1960,2041,2016,1745188045576097089
11236171,2085,1985,2045,2029,1745188045576097089
11237171,2068,2029,2048,2052,1745188045576097089
11238171,2044,2095,2050,2080,1745188045576097089
11239171,2017,2168,2050,2113,1745188045576097089
11240171,1993,2241,2049,2145,1745188045576097089
11241171,1976,2306,2048,2173,1745188045576097089
11242171,1962,2359,2042,2195,1745188045576097089
11243171,1957,2393,2040,2205,1745188045576097089
11244171,1962,2405,2036,2208,1745188045576097089
11245171,1974,2402,2032,2203,1745188045576097089
11246172,1993,2381,2029,2191,1745188045576097089
11247172,2019,2337,2027,2170,1745188045576097089
11248172,2051,2278,2026,2148,1745188045576097089
11249172,2080,2219,2025,2124,1745188045576097089
11250172,2106,2170,2024,2102,1745188045576097089
11251172,2129,2125,2024,2085,1745188045576097089
11252172,2145,2086,2024,2074,1745188045576097089
11253172,2154,2054,2023,2066,1745188045576097089
11254172,2158,2029,2021,2061,1745188045576097089
11255172,2154,2021,2021,2062,1745188045576097089
11256172,2132,2032,2021,2072,1745188045576097089
11257172,2128,2073,2022,2089,1745188045576097089
11258173,2114,2134,2024,2115,1745188045576097089
11259173,2081,2208,2025,2145,1745188045576097089
11260173,2058,2281,2024,2176,1745188045576097089
11261173,2038,2341,2024,2205,1745188045576097089
11262173,2027,2386,2022,2225,1745188045576097089
11263173,2022,2405,2019,2237,1745188045576097089
11264173,2025,2406,2016,2238,1745188045576097089
11265173,2039,2395,2013,2232,1745188045576097089
11266173,2062,2365,2009,2217,1745188045576097089
11267173,2083,2315,2006,2195,1745188045576097089
11268173,2108,2250,2004,2170,1745188045576097089
11269173,2134,2176,2002,2142,1745188045576097089
11270174,2157,2106,2002,2117,1745188045576097089
11271174,2176,2052,2003,2096,1745188045576097089
11272174,2189,2032,2003,2080,1745188045576097089
11273174,2197,2041,2003,2070,1745188045649582408
11274174,2201,2063,2003,2066,1745188045649582408
11275174,2198,2088,2003,2068,1745188045649582408
11276174,2192,2116,2002,2078,1745188045649582408
11277174,2180,2165,2001,2094,1745188045649582408
11278174,2160,2228,2001,2120,1745188045649582408
11279174,2137,2302,2003,2144,1745188045649582408
11280174,2114,2373,2004,2178,1745188045649582408
11281174,2094,2437,2005,2203,1745188045649582408
11282175,2078,2484,2003,2219,1745188045649582408
11283175,2074,2505,1997,2226,1745188045649582408
11284175,2077,2492,1993,2224,1745188045649582408
11285175,2090,2456,1987,2209,1745188045649582408
11286175,2108,2404,1985,2190,1745188045649582408
11287175,2132,2342,1981,2166,1745188045649582408
11288175,2158,2275,1980,2140,1745188045649582408
11289175,2185,2208,1980,2105,1745188045649582408
11290175,2207,2171,1995,2093,1745188045649582408
11291175,2238,2124,1993,2037,1745188045649582408
11292175,2244,2113,1993,2043,1745188045649582408
11293175,2249,2065,1974,2012,1745188045649582408
11294176,2233,2084,1986,2007,1745188045649582408
11295176,2232,2071,1992,2008,1745188045649582408
11296176,2228,2061,1998,2016,1745188045649582408
11297176,2216,2064,2001,2031,1745188045649582408
11298176,2200,2109,2008,2057,1745188045649582408
11299176,2177,2162,2011,2085,1745188045649582408
11300176,2151,2221,2011,2113,1745188045649582408
11301176,2131,2275,2010,2136,1745188045649582408
11302176,2115,2316,2010,2152,1745188045649582408
11303176,2106,2339,2009,2160,1745188045649582408
11304176,2107,2346,2005,2158,1745188045649582408
11305178,2116,2333,2002,2146,1745188045649582408
11306177,2130,2297,2001,2128,1745188045649582408
11307177,2150,2246,1998,2101,1745188045649582408
11308177,2171,2182,1996,2070,1745188045649582408
11309177,2193,2117,1994,2037,1745188045649582408
11310177,2212,2056,1994,2009,1745188045649582408
11311177,2226,2005,1993,1985,1745188045649582408
11312177,2236,1967,1996,1965,1745188045649582408
11313177,2240,1942,1999,1953,1745188045649582408
11314177,2236,1928,2002,1945,1745188045649582408
11315177,2230,1929,2004,1942,1745188045649582408
11316177,2220,1939,2008,1947,1745188045649582408
11317177,2201,1964,2013,1961,1745188045649582408
11318178,2173,2006,2019,1982,1745188045649582408
11319178,2146,2059,2021,2010,1745188045649582408
11320178,2117,2110,2022,2038,1745188045649582408
11321178,2093,2157,2025,2065,1745188045649582408
11322178,2077,2194,2023,2082,1745188045649582408
11323178,2068,2217,2021,2089,1745188045649582408
11324178,2068,2217,2019,2084,1745188045649582408
11325178,2077,2192,2022,2069,1745188045649582408
11326178,2093,2149,2016,2048,1745188045649582408
11327178,2113,2094,2015,2019,1745188045649582408
11328178,2134,2028,2013,1988,1745188045649582408
11329178,2156,1962,2012,1954,1745188045649582408
11330179,2176,1896,2019,1926,1745188045649582408
11331179,2192,1840,2014,1900,1745188045686073272
11332179,2198,1795,2018,1881,1745188045686073272
11333179,2201,1764,2022,1866,1745188045686073272
11334179,2195,1743,2026,1857,1745188045686073272
11335179,2186,1736,2031,1856,1745188045686073272
11336179,2172,1744,2036,1860,1745188045686073272
11337179,2152,1774,2041,1876,1745188045686073272
11338179,2131,1825,2050,1898,1745188045686073272
11339179,2101,1885,2054,1926,1745188045686073272
11340179,2074,1941,2056,1955,1745188045686073272
11341179,2043,1988,2057,1984,1745188045686073272
11342180,2021,2018,2057,2002,1745188045686073272
11343180,2009,2033,2058,2013,1745188045686073272
11344180,2004,2032,2056,2014,1745188045686073272
11345180,2010,2024,2054,2006,1745188045686073272
11346180,2020,2009,2054,1990,1745188045686073272
11347180,2036,1984,2054,1969,1745188045686073272
11348180,2058,1937,2054,1941,1745188045686073272
11349180,2081,1867,2060,1913,1745188045686073272
11350180,2099,1789,2059,1887,1745188045686073272
11351180,2112,1716,2061,1864,1745188045686073272
11352180,2115,1662,2068,1849,1745188045686073272
11353180,2115,1624,2073,1829,1745188045686073272
11354181,2104,1603,2078,1851,1745188045686073272
11355181,2112,1622,2098,1845,1745188045686073272
11356181,2092,1613,2104,1851,1745188045686073272
11357181,2071,1672,2104,1866,1745188045686073272
11358181,2008,1699,2091,1892,1745188045686073272
11359181,2008,1756,2112,1916,1745188045686073272
11360181,1977,1788,2113,1944,1745188045686073272
11361181,1948,1829,2110,1968,1745188045686073272
11362181,1926,1885,2084,1972,1745188045686073272
11363181,1901,1948,2106,2003,1745188045686073272
11364181,1910,1989,2107,2001,1745188045686073272
11365181,1909,2001,2102,1991,1745188045686073272
11366182,1917,1989,2100,1976,1745188045686073272
11367182,1932,1938,2081,1942,1745188045686073272
11368182,1936,1897,2086,1921,1745188045686073272
11369182,1957,1849,2090,1898,1745188045686073272
11370182,1976,1799,2093,1877,1745188045686073272
11371182,1990,1744,2095,1858,1745188045686073272
11372182,1996,1691,2098,1843,1745188045686073272
11373182,2001,1643,2100,1832,1745188045686073272
11374182,1997,1612,2105,1828,1745188045686073272
11375182,1990,1592,2107,1826,1745188045686073272
11376182,1976,1589,2109,1841,1745188045686073272
11377182,1956,1614,2109,1857,1745188045686073272
11378183,1931,1666,2114,1884,1745188045686073272
11379183,1901,1733,2120,1917,1745188045686073272
11380183,1872,1806,2122,1952,1745188045686073272
11381183,1848,1874,2122,1984,1745188045686073272
11382183,1830,1932,2121,2011,1745188045686073272
11383183,1819,1971,2116,2026,1745188045686073272
11384183,1818,1987,2113,2032,1745188045686073272
11385183,1824,1986,2110,2027,1745188045686073272
11386183,1835,1966,2107,2014,1745188045686073272
11387183,1851,1936,2104,1994,1745188045686073272
11388183,1869,1892,2101,1969,1745188045686073272
11389183,1890,1842,2100,1941,1745188045751166375
11390184,1910,1789,2099,1917,1745188045751166375
11391184,1928,1738,2100,1897,1745188045751166375
11392184,1940,1693,2100,1881,1745188045751166375
11393184,1947,1655,2102,1871,1745188045751166375
11394184,1946,1630,2104,1867,1745188045751166375
11395184,1942,1620,2105,1869,1745188045751166375
11396184,1932,1626,2108,1880,1745188045751166375
11397184,1914,1656,2112,1900,1745188045751166375
11398184,1890,1713,2116,1928,1745188045751166375
11399184,1865,1789,2118,1960,1745188045751166375
11400184,1837,1870,2121,1994,1745188045751166375
11401184,1813,1946,2122,2027,1745188045751166375
11402185,1795,2018,2122,2054,1745188045751166375
11403186,1788,2067,2120,2069,1745188045751166375
11404185,1789,2091,2116,2075,1745188045751166375
11405185,1798,2112,2130,2083,1745188045751166375
11406185,1826,2089,2122,2029,1745188045751166375
11407185,1829,2031,2101,2026,1745188045751166375
11408185,1857,1978,2099,2002,1745188045751166375
11409185,1883,1912,2117,1992,1745188045751166375
11410185,1917,1852,2105,1922,1745188045751166375
11411185,1914,1774,2090,1928,1745188045751166375
11412185,1932,1730,2093,1916,1745188045751166375
11413185,1940,1704,2097,1910,1745188045751166375
11414186,1943,1693,2099,1909,1745188045751166375
11415186,1939,1693,2104,1915,1745188045751166375
11416186,1929,1708,2106,1925,1745188045751166375
11417186,1913,1742,2108,1945,1745188045751166375
11418186,1892,1796,2111,1972,1745188045751166375
11419186,1868,1860,2110,2005,1745188045751166375
11420186,1842,1930,2112,2038,1745188045751166375
11421186,1822,1995,2112,2070,1745188045751166375
11422186,1809,2052,2110,2097,1745188045751166375
11423186,1801,2108,2105,2112,1745188045751166375
11424186,1804,2138,2102,2120,1745188045751166375
11425186,1816,2144,2097,2117,1745188045751166375
11426187,1832,2125,2092,2104,1745188045751166375
11427187,1856,2084,2087,2081,1745188045751166375
11428187,1881,2031,2082,2054,1745188045751166375
11429187,1908,1970,2078,2024,1745188045751166375
11430187,1934,1914,2075,2001,1745188045751166375
11431187,1954,1865,2074,1982,1745188045751166375
11432187,1969,1821,2077,1969,1745188045751166375
11433187,1978,1790,2081,1961,1745188045751166375
11434187,1981,1766,2083,1960,1745188045751166375
11435187,1980,1760,2086,1963,1745188045751166375
11436187,1970,1773,2089,1973,1745188045751166375
11437187,1955,1815,2092,1993,1745188045751166375
11438188,1932,1884,2092,2023,1745188045751166375
11439188,1906,1982,2093,2060,1745188045751166375
11440188,1880,2091,2093,2094,1745188045751166375
11441188,1857,2178,2093,2125,1745188045751166375
11442188,1843,2235,2091,2149,1745188045751166375
11443188,1840,2261,2088,2164,1745188045751166375
11444188,1844,2267,2084,2168,1745188045751166375
11445188,1856,2250,2080,2161,1745188045751166375
11446188,1874,2216,2074,2148,1745188045751166375
11447188,1896,2165,2072,2126,1745188045812553419
11448188,1922,2106,2069,2100,1745188045812553419
11449188,1948,2041,2066,2073,1745188045812553419
11450189,1972,1986,2067,2048,1745188045812553419
11451189,1995,1940,2066,2024,1745188045812553419
11452189,2006,1908,2068,2009,1745188045812553419
11453189,2016,1886,2068,1998,1745188045812553419
11454189,2014,1871,2072,1993,1745188045812553419
11455189,2012,1864,2074,1993,1745188045812553419
11456189,2005,1868,2077,2001,1745188045812553419
11457189,1995,1890,2081,2019,1745188045812553419
11458189,1978,1938,2083,2034,1745188045812553419
11459189,1957,2003,2086,2075,1745188045812553419
11460189,1933,2074,2085,2105,1745188045812553419
11461189,1913,2143,2080,2131,1745188045812553419
11462190,1896,2202,2085,2158,1745188045812553419
11463190,1892,2243,2084,2169,1745188045812553419
11464190,1893,2260,2081,2179,1745188045812553419
11465190,1901,2256,2076,2168,1745188045812553419
11466190,1917,2235,2072,2174,1745188045812553419
11467190,1936,2219,2084,2146,1745188045812553419
11468190,1978,2163,2078,2089,1745188045812553419
11469190,1986,2088,2061,2071,1745188045812553419
11470190,2012,2028,2061,2041,1745188045812553419
11471190,2036,1973,2064,2020,1745188045812553419
11472190,2056,1926,2080,2016,1745188045812553419
11473190,2079,1904,2075,1967,1745188045812553419
11474191,2060,1882,2062,2003,1745188045812553419
11475191,2058,1851,2065,1986,1745188045812553419
11476191,2052,1854,2069,1997,1745188045812553419
11477191,2038,1888,2072,2018,1745188045812553419
11478191,2018,1946,2073,2042,1745188045812553419
11479191,1993,2025,2074,2076,1745188045812553419
11480191,1970,2112,2072,2107,1745188045812553419
11481191,1948,2189,2070,2137,1745188045812553419
11482191,1933,2250,2069,2160,1745188045812553419
11483191,1925,2282,2067,2177,1745188045812553419
11484191,1928,2282,2063,2182,1745188045812553419
11485191,1937,2257,2059,2177,1745188045812553419
11486192,1955,2213,2056,2164,1745188045812553419
11487192,1974,2156,2051,2146,1745188045812553419
11488192,2001,2089,2049,2120,1745188045812553419
11489192,2028,2019,2048,2092,1745188045812553419
11490192,2053,1958,2048,2068,1745188045812553419
11491192,2073,1908,2049,2044,1745188045812553419
11492192,2085,1870,2050,2026,1745188045812553419
11493192,2092,1845,2053,2012,1745188045812553419
11494192,2095,1830,2056,2006,1745188045812553419
11495192,2090,1832,2058,2006,1745188045812553419
11496192,2081,1855,2059,2013,1745188045812553419
11497192,2065,1906,2059,2033,1745188045812553419
11498193,2043,1976,2060,2057,1745188045812553419
11499193,2017,2057,2059,2085,1745188045812553419
11500193,1992,2136,2059,2117,1745188045812553419
11501193,1970,2207,2057,2148,1745188045812553419
11502193,1953,2266,2054,2173,1745188045812553419
11503193,1945,2302,2053,2189,1745188045812553419
11504193,1946,2316,2051,2195,1745188045812553419
11505193,1955,2307,2051,2190,1745188045870330131
11506193,1972,2282,2048,2177,1745188045870330131
11507193,1993,2237,2048,2160,1745188045870330131
11508193,2019,2172,2044,2132,1745188045870330131
11509193,2043,2097,2048,2104,1745188045870330131
11510194,2069,2017,2048,2076,1745188045870330131
11511194,2089,1943,2050,2052,1745188045870330131
11512194,2104,1889,2052,2034,1745188045870330131
11513194,2113,1870,2054,2026,1745188045870330131
11514194,2117,1890,2053,2021,1745188045870330131
11515194,2114,1931,2054,2021,1745188045870330131
11516194,2105,1973,2056,2029,1745188045870330131
11517194,2091,2012,2060,2048,1745188045870330131
11518194,2070,2061,2062,2069,1745188045870330131
11519194,2042,2120,2064,2099,1745188045870330131
11520194,2016,2189,2066,2131,1745188045870330131
11521194,1993,2262,2065,2158,1745188045870330131
11522195,1972,2326,2065,2184,1745188045870330131
11523195,1964,2370,2061,2196,1745188045870330131
11524195,1962,2384,2056,2198,1745188045870330131
11525195,1972,2355,2051,2193,1745188045870330131
11526195,1993,2317,2048,2180,1745188045870330131
11527195,2019,2253,2040,2159,1745188045870330131
11528195,2043,2178,2031,2147,1745188045870330131
11529195,2089,2122,2045,2113,1745188045870330131
11530195,2109,2022,2022,2069,1745188045870330131
11531195,2112,1981,2028,2048,1745188045870330131
11532195,2126,1935,2029,2028,1745188045870330131
11533195,2136,1901,2033,2015,1745188045870330131
11534196,2137,1874,2036,2021,1745188045870330131
11535196,2133,1882,2042,2009,1745188045870330131
11536196,2126,1905,2044,2016,1745188045870330131
11537197,2108,1956,2049,2033,1745188045870330131
11538196,2093,2026,2053,2058,1745188045870330131
11539196,2068,2102,2056,2088,1745188045870330131
11540198,2040,2173,2054,2118,1745188045870330131
11541196,2018,2237,2050,2147,1745188045870330131
11542196,2001,2286,2049,2170,1745188045870330131
11543196,1996,2321,2041,2182,1745188045870330131
11544196,1996,2333,2035,2184,1745188045870330131
11545196,2008,2330,2028,2174,1745188045870330131
11546197,2025,2303,2026,2157,1745188045870330131
11547197,2049,2258,2017,2137,1745188045870330131
11548197,2072,2201,2013,2107,1745188045870330131
11549197,2097,2134,2011,2078,1745188045870330131
11550197,2121,2069,2011,2054,1745188045870330131
11551197,2139,2008,2012,2030,1745188045870330131
11552197,2151,1961,2015,2015,1745188045870330131
11553197,2157,1925,2019,2008,1745188045870330131
11554197,2158,1905,2025,2003,1745188045870330131
11555197,2156,1906,2029,2008,1745188045870330131
11556197,2148,1929,2033,2017,1745188045870330131
11557197,2134,1972,2035,2035,1745188045870330131
11558198,2114,2033,2036,2058,1745188045870330131
11559198,2090,2106,2036,2088,1745188045870330131
11560198,2066,2181,2036,2116,1745188045870330131
11561198,2041,2251,2036,2145,1745188045870330131
11562198,2028,2309,2031,2168,1745188045870330131
11563198,2019,2350,2026,2181,1745188045942518898
11564198,2018,2373,2024,2186,1745188045942518898
11565198,2027,2378,2020,2179,1745188045942518898
11566198,2041,2365,2017,2162,1745188045942518898
11567198,2062,2330,2014,2140,1745188045942518898
11568198,2085,2273,2010,2108,1745188045942518898
11569198,2114,2194,2006,2077,1745188045942518898
11570199,2138,2104,2004,2048,1745188045942518898
11571199,2161,2020,2005,2020,1745188045942518898
11572199,2178,1952,2006,2003,1745188045942518898
11573199,2186,1909,2011,1993,1745188045942518898
11574199,2188,1890,2016,1990,1745188045942518898
11575199,2182,1896,2021,1993,1745188045942518898
11576199,2173,1920,2026,2002,1745188045942518898
11577199,2158,1964,2030,2020,1745188045942518898
11578199,2137,2028,2034,2043,1745188045942518898
11579199,2112,2106,2036,2075,1745188045942518898
11580199,2084,2184,2037,2107,1745188045942518898
11581199,2060,2253,2036,2136,1745188045942518898
11582200,2037,2308,2036,2157,1745188045942518898
11583200,2026,2344,2030,2172,1745188045942518898
11584200,2027,2351,2026,2176,1745188045942518898
11585201,2034,2332,2019,2169,1745188045942518898
11586200,2044,2274,2029,2172,1745188045942518898
11587200,2083,2260,2024,2149,1745188045942518898
11588200,2075,2179,2009,2106,1745188045942518898
11589200,2110,2121,2012,2082,1745188045942518898
11590200,2134,2064,2015,2058,1745188045942518898
11591200,2153,2013,2017,2034,1745188045942518898
11592200,2155,1974,2020,2014,1745188045942518898
11593200,2170,1952,2021,2002,1745188045942518898
11594201,2168,1936,2022,1993,1745188045942518898
11595201,2162,1934,2016,1989,1745188045942518898
11596201,2154,1946,2022,1996,1745188045942518898
11597201,2140,1978,2022,2014,1745188045942518898
11598201,2118,2033,2021,2037,1745188045942518898
11599201,2093,2099,2022,2070,1745188045942518898
11600201,2067,2170,2022,2103,1745188045942518898
11601201,2042,2236,2022,2132,1745188045942518898
11602201,2026,2289,2021,2156,1745188045942518898
11603201,2019,2328,2018,2172,1745188045942518898
11604201,2020,2344,2014,2176,1745188045942518898
11605201,2030,2338,2011,2171,1745188045942518898
11606202,2048,2313,2008,2155,1745188045942518898
11607202,2070,2270,2003,2135,1745188045942518898
11608202,2094,2214,2001,2105,1745188045942518898
11609202,2122,2149,2001,2074,1745188045942518898
11610202,2145,2089,2002,2044,1745188045942518898
11611202,2163,2031,2003,2018,1745188045942518898
11612202,2178,1985,2005,1999,1745188045942518898
11613202,2188,1949,2008,1984,1745188045942518898
11614202,2189,1925,2010,1974,1745188045942518898
11615202,2185,1915,2012,1971,1745188045942518898
11616202,2173,1921,2014,1974,1745188045942518898
11617202,2157,1946,2017,1989,1745188045942518898
11618203,2136,1994,2021,2011,1745188045942518898
11619203,2112,2058,2025,2038,1745188045942518898
11620203,2087,2125,2029,2072,1745188045942518898
11621203,2061,2192,2032,2099,1745188045986123448
11622203,2041,2243,2032,2123,1745188045986123448
11623203,2029,2277,2028,2138,1745188045986123448
11624203,2028,2285,2030,2140,1745188045986123448
11625203,2035,2272,2027,2132,1745188045986123448
11626203,2050,2241,2023,2117,1745188045986123448
11627203,2069,2200,2019,2093,1745188045986123448
11628203,2090,2153,2015,2068,1745188045986123448
11629203,2112,2108,2012,2038,1745188045986123448
11630204,2133,2066,2012,2012,1745188045986123448
11631204,2150,2018,2012,1988,1745188045986123448
11632204,2162,1974,2017,1970,1745188045986123448
11633204,2168,1940,2017,1957,1745188045986123448
11634204,2170,1921,2020,1950,1745188045986123448
11635204,2160,1907,2022,1950,1745188045986123448
11636204,2148,1903,2026,1957,1745188045986123448
11637204,2131,1920,2028,1971,1745188045986123448
11638204,2110,1964,2032,1997,1745188045986123448
11639204,2082,2030,2034,2029,1745188045986123448
11640204,2054,2110,2034,2057,1745188045986123448
11641205,2030,2181,2033,2095,1745188045986123448
11642205,2010,2248,2033,2120,1745188045986123448
11643205,2000,2290,2030,2137,1745188045986123448
11644205,1997,2306,2028,2141,1745188045986123448
11645205,2009,2296,2026,2136,1745188045986123448
11646205,2025,2270,2023,2120,1745188045986123448
11647205,2044,2230,2020,2097,1745188045986123448
11648205,2070,2173,2019,2070,1745188045986123448
11649205,2093,2104,2017,2037,1745188045986123448
11650205,2116,2034,2012,2009,1745188045986123448
11651205,2137,1978,2017,1989,1745188045986123448
11652205,2149,1935,2019,1972,1745188045986123448
11653205,2153,1906,2024,1963,1745188045986123448
11654206,2153,1912,2026,1957,1745188045986123448
11655206,2148,1899,2038,1960,1745188045986123448
11656206,2131,1916,2038,1967,1745188045986123448
11657206,2139,1963,2067,2001,1745188045986123448
11658206,2106,2008,2033,2021,1745188045986123448
11659206,2077,2065,2069,2051,1745188045986123448
11660206,2043,2099,2056,2081,1745188045986123448
11661206,2021,2173,2071,2112,1745188045986123448
11662206,2002,2213,2070,2137,1745188045986123448
11663206,1992,2240,2067,2156,1745188045986123448
11664206,1990,2210,2044,2154,1745188045986123448
11665206,1985,2224,2049,2154,1745188045986123448
11666207,2003,2204,2051,2168,1745188045986123448
11667207,2028,2171,2041,2131,1745188045986123448
11668207,2057,2129,2037,2105,1745188045986123448
11669207,2085,2084,2033,2078,1745188045986123448
11670207,2108,2035,2030,2052,1745188045986123448
11671207,2128,1987,2028,2028,1745188045986123448
11672207,2141,1941,2028,2010,1745188045986123448
11673207,2152,1907,2028,2000,1745188045986123448
11674208,2155,1883,2028,1995,1745188045986123448
11675207,2147,1874,2028,1995,1745188045986123448
11676207,2137,1877,2028,2000,1745188045986123448
11677207,2120,1902,2030,2011,1745188045986123448
11678208,2095,1942,2034,2024,1745188045986123448
11679208,2069,2008,2038,2043,1745188046046347273
11680208,2042,2082,2042,2068,1745188046046347273
11681208,2019,2144,2043,2093,1745188046046347273
11682208,2001,2194,2042,2114,1745188046046347273
11683208,1987,2237,2040,2130,1745188046046347273
11684208,1985,2277,2037,2139,1745188046046347273
11685208,1992,2297,2036,2142,1745188046046347273
11686208,2008,2290,2034,2138,1745188046046347273
11687208,2027,2257,2033,2129,1745188046046347273
11688208,2053,2203,2033,2114,1745188046046347273
11689208,2078,2142,2031,2092,1745188046046347273
11690209,2101,2080,2030,2067,1745188046046347273
11691209,2120,2021,2030,2041,1745188046046347273
11692209,2131,1973,2030,2019,1745188046046347273
11693209,2137,1937,2028,2001,1745188046046347273
11694209,2140,1915,2028,1989,1745188046046347273
11695209,2133,1907,2027,1984,1745188046046347273
11696209,2125,1915,2027,1984,1745188046046347273
11697209,2113,1942,2028,1995,1745188046046347273
11698209,2091,1990,2030,2014,1745188046046347273
11699209,2067,2057,2033,2042,1745188046046347273
11700209,2037,2126,2035,2077,1745188046046347273
11701209,2012,2195,2035,2107,1745188046046347273
11702210,1992,2251,2056,2149,1745188046046347273
11703210,1993,2302,2049,2130,1745188046046347273
11704210,1969,2299,2042,2150,1745188046046347273
11705210,1980,2294,2029,2145,1745188046046347273
11706210,1995,2270,2025,2131,1745188046046347273
11707210,2015,2232,2022,2120,1745188046046347273
11708210,2037,2177,2021,2080,1745188046046347273
11709210,2068,2114,2025,2042,1745188046046347273
11710210,2093,2051,2030,2006,1745188046046347273
11711210,2114,1991,2033,1972,1745188046046347273
11712210,2126,1943,2035,1945,1745188046046347273
11713210,2133,1909,2034,1929,1745188046046347273
11714211,2134,1888,2030,1922,1745188046046347273
11715211,2129,1881,2026,1922,1745188046046347273
11716211,2120,1889,2021,1931,1745188046046347273
11717211,2106,1915,2018,1954,1745188046046347273
11718211,2083,1961,2020,1981,1745188046046347273
11719211,2058,2025,2022,2021,1745188046046347273
11720211,2029,2096,2029,2062,1745188046046347273
11721211,2006,2160,2034,2098,1745188046046347273
11722211,1987,2216,2038,2124,1745188046046347273
11723211,1978,2253,2040,2141,1745188046046347273
11724211,1973,2276,2040,2149,1745188046046347273
11725211,1984,2286,2042,2149,1745188046046347273
11726212,1997,2274,2034,2144,1745188046046347273
11727212,2020,2245,2029,2131,1745188046046347273
11728212,2041,2200,2028,2107,1745188046046347273
11729212,2066,2145,2031,2078,1745188046046347273
11730212,2089,2091,2034,2043,1745188046046347273
11731212,2106,2032,2037,2009,1745188046046347273
11732212,2120,1974,2038,1980,1745188046046347273
11733212,2129,1924,2041,1962,1745188046046347273
11734212,2131,1890,2043,1954,1745188046046347273
11735212,2129,1875,2051,1962,1745188046046347273
11736212,2118,1880,2058,1980,1745188046046347273
11737212,2105,1906,2060,2012,1745188046103759873
11738213,2085,1951,2060,2051,1745188046103759873
11739213,2060,2017,2053,2090,1745188046103759873
11740213,2033,2089,2048,2122,1745188046103759873
11741213,2010,2158,2044,2140,1745188046103759873
11742213,1989,2216,2044,2142,1745188046103759873
11743213,1976,2257,2048,2131,1745188046103759873
11744213,1973,2275,2048,2108,1745188046103759873
11745213,1980,2270,2042,2082,1745188046103759873
11746213,1994,2246,2033,2053,1745188046103759873
11747213,2013,2209,2025,2027,1745188046103759873
11748213,2035,2157,2019,2001,1745188046103759873
11749213,2061,2097,2016,1979,1745188046103759873
11750214,2084,2034,2017,1957,1745188046103759873
11751214,2105,1982,2018,1940,1745188046103759873
11752214,2120,1934,2020,1929,1745188046103759873
11753214,2128,1902,2022,1924,1745188046103759873
11754214,2131,1881,2024,1929,1745188046103759873
11755214,2128,1874,2025,1942,1745188046103759873
11756214,2120,1881,2030,1968,1745188046103759873
11757214,2106,1908,2032,2010,1745188046103759873
11758214,2085,1955,2066,2058,1745188046103759873
11759214,2054,2019,2052,2113,1745188046103759873
11760214,2038,2090,2061,2155,1745188046103759873
11761214,2013,2157,2061,2188,1745188046103759873
11762215,1994,2208,2080,2223,1745188046103759873
11763215,1995,2267,2072,2219,1745188046103759873
11764215,1961,2267,2049,2190,1745188046103759873
11765215,1981,2270,2036,2162,1745188046103759873
11766215,1995,2253,2026,2123,1745188046103759873
11767215,2015,2219,2017,2083,1745188046103759873
11768215,2037,2163,2014,2030,1745188046103759873
11769215,2063,2099,2019,1993,1745188046103759873
11770215,2090,2025,2030,1954,1745188046103759873
11771215,2112,1962,2043,1926,1745188046103759873
11772215,2128,1906,2054,1909,1745188046103759873
11773215,2137,1865,2057,1914,1745188046103759873
11774216,2141,1845,2053,1928,1745188046103759873
11775216,2137,1844,2052,1946,1745188046103759873
11776216,2129,1861,2056,1969,1745188046103759873
11777216,2114,1896,2061,1997,1745188046103759873
11778216,2091,1948,2069,2029,1745188046103759873
11779216,2067,2016,2078,2072,1745188046103759873
11780216,2037,2088,2086,2118,1745188046103759873
11781216,2013,2156,2095,2163,1745188046103759873
11782216,1995,2213,2109,2199,1745188046103759873
11783216,1984,2254,2121,2219,1745188046103759873
11784216,1982,2273,2129,2226,1745188046103759873
11785216,1987,2267,2125,2216,1745188046103759873
11786217,2002,2244,2112,2198,1745188046103759873
11787217,2022,2204,2091,2171,1745188046103759873
11788217,2044,2150,2066,2141,1745188046103759873
11789217,2072,2091,2040,2105,1745188046103759873
11790217,2096,2027,2018,2074,1745188046103759873
11791217,2118,1971,2003,2044,1745188046103759873
11792217,2132,1924,1994,2020,1745188046103759873
11793217,2139,1888,1996,2003,1745188046103759873
11794217,2141,1867,2006,1990,1745188046103759873
11795217,2138,1861,2022,1979,1745188046165804202
11796217,2125,1869,2038,1971,1745188046165804202
11797217,2110,1897,2050,1972,1745188046165804202
11798218,2088,1943,2054,1980,1745188046165804202
11799218,2061,2005,2056,1996,1745188046165804202
11800218,2032,2077,2056,2014,1745188046165804202
11801218,2008,2146,2056,2031,1745188046165804202
11802218,1986,2204,2054,2048,1745188046165804202
11803218,1973,2243,2052,2057,1745188046165804202
11804218,1970,2261,2050,2060,1745188046165804202
11805218,1973,2259,2048,2054,1745188046165804202
11806218,1986,2237,2042,2042,1745188046165804202
11807218,2005,2198,2040,2029,1745188046165804202
11808218,2028,2145,2040,2011,1745188046165804202
11809218,2053,2084,2042,1990,1745188046165804202
11810219,2077,2020,2048,1964,1745188046165804202
11811219,2098,1964,2052,1938,1745188046165804202
11812219,2114,1917,2057,1915,1745188046165804202
11813219,2123,1883,2058,1900,1745188046165804202
11814219,2125,1861,2049,1894,1745188046165804202
11815219,2122,1853,2025,1902,1745188046165804202
11816219,2117,1859,1992,1922,1745188046165804202
11817220,2105,1882,1960,1954,1745188046165804202
11818219,2086,1932,1942,1996,1745188046165804202
11819221,2061,1977,1918,2036,1745188046165804202
11820219,2049,2082,1961,2097,1745188046165804202
11821219,2018,2108,1971,2114,1745188046165804202
11822220,1983,2188,2019,2141,1745188046165804202
11823220,1972,2232,2058,2154,1745188046165804202
11824220,1967,2253,2083,2155,1745188046165804202
11825220,1972,2274,2089,2146,1745188046165804202
11826220,1981,2235,2095,2130,1745188046165804202
11827220,2002,2199,2095,2112,1745188046165804202
11828220,2022,2147,2091,2086,1745188046165804202
11829220,2052,2086,2090,2062,1745188046165804202
11830220,2078,2024,2088,2035,1745188046165804202
11831220,2099,1969,2088,2014,1745188046165804202
11832220,2114,1924,2086,1997,1745188046165804202
11833220,2122,1890,2082,1988,1745188046165804202
11834221,2125,1867,2078,1984,1745188046165804202
11835221,2121,1858,2070,1987,1745188046165804202
11836221,2113,1861,2059,1997,1745188046165804202
11837221,2100,1884,2052,2021,1745188046165804202
11838221,2081,1928,2064,2064,1745188046165804202
11839221,2057,1988,2088,2116,1745188046165804202
11840221,2029,2060,2120,2171,1745188046165804202
11841221,2000,2126,2148,2215,1745188046165804202
11842221,1973,2185,2167,2240,1745188046165804202
11843221,1951,2229,2169,2248,1745188046165804202
11844221,1933,2254,2145,2228,1745188046165804202
11845221,1928,2258,2095,2194,1745188046165804202
11846222,1933,2240,2036,2160,1745188046165804202
11847222,1948,2202,1986,2140,1745188046165804202
11848222,1979,2147,1938,2136,1745188046165804202
11849222,2014,2084,1894,2137,1745188046165804202
11850222,2051,2018,1866,2130,1745188046165804202
11851222,2086,1961,1864,2109,1745188046165804202
11852222,2108,1913,1895,2072,1745188046165804202
11853222,2122,1880,1956,2019,1745188046219773397
11854222,2125,1860,2025,1969,1745188046219773397
11855222,2121,1856,2082,1923,1745188046219773397
11856222,2113,1867,2112,1891,1745188046219773397
11857222,2098,1898,2121,1878,1745188046219773397
11858223,2078,1949,2117,1886,1745188046219773397
11859223,2057,2013,2109,1915,1745188046219773397
11860223,2034,2085,2100,1963,1745188046219773397
11861223,2013,2153,2093,2021,1745188046219773397
11862223,1997,2211,2091,2080,1745188046219773397
11863223,1986,2252,2094,2121,1745188046219773397
11864223,1985,2270,2093,2144,1745188046219773397
11865223,1990,2268,2088,2144,1745188046219773397
11866223,2005,2248,2078,2125,1745188046219773397
11867223,2027,2209,2066,2093,1745188046219773397
11868225,2042,2157,2059,2057,1745188046219773397
11869223,2068,2097,2059,2019,1745188046219773397
11870224,2088,2033,2064,1984,1745188046219773397
11871224,2100,1978,2070,1952,1745188046219773397
11872224,2107,1931,2070,1920,1745188046219773397
11873224,2101,1895,2058,1883,1745188046219773397
11874224,2092,1870,2035,1849,1745188046219773397
11875225,2079,1858,2008,1827,1745188046219773397
11876225,2066,1856,1971,1824,1745188046219773397
11877226,2056,1877,1953,1840,1745188046219773397
11878224,2042,1916,1936,1880,1745188046219773397
11879224,2026,1973,1932,1936,1745188046219773397
11880225,2009,2043,1941,2002,1745188046219773397
11881224,1990,2115,1965,2066,1745188046219773397
11882225,1983,2199,2024,2139,1745188046219773397
11883225,1979,2245,2045,2167,1745188046219773397
11884225,1969,2254,2113,2205,1745188046219773397
11885225,1981,2259,2152,2232,1745188046219773397
11886225,1999,2242,2176,2243,1745188046219773397
11887225,2016,2205,2172,2240,1745188046219773397
11888225,2034,2150,2165,2221,1745188046219773397
11889225,2061,2091,2138,2193,1745188046219773397
11890225,2084,2027,2103,2156,1745188046219773397
11891225,2100,1970,2068,2109,1745188046219773397
11892225,2108,1926,2035,2055,1745188046219773397
11893225,2104,1892,2014,1997,1745188046219773397
11894226,2091,1873,2004,1946,1745188046219773397
11895226,2072,1867,2004,1906,1745188046219773397
11896226,2048,1873,2012,1881,1745188046219773397
11897226,2024,1897,2027,1873,1745188046219773397
11898226,2002,1944,2050,1886,1745188046219773397
11899226,1986,2009,2072,1920,1745188046219773397
11900226,1976,2080,2093,1963,1745188046219773397
11901226,1976,2146,2111,2012,1745188046219773397
11902226,1984,2205,2122,2059,1745188046219773397
11903226,1992,2247,2117,2101,1745188046219773397
11904226,2002,2268,2092,2129,1745188046219773397
11905227,2014,2268,2051,2136,1745188046219773397
11906227,2030,2247,2001,2117,1745188046219773397
11907227,2051,2209,1958,2085,1745188046219773397
11908227,2078,2153,1921,2048,1745188046219773397
11909227,2109,2088,1894,2012,1745188046219773397
11910227,2137,2019,1874,1992,1745188046219773397
11911227,2162,1957,1856,2000,1745188046280209616
11912227,2182,1906,1843,2044,1745188046280209616
11913227,2195,1867,1844,2082,1745188046280209616
11914227,2197,1842,1866,2138,1745188046280209616
11915227,2191,1833,1918,2196,1745188046280209616
11916227,2176,1841,2008,2245,1745188046280209616
11917227,2154,1867,2098,2276,1745188046280209616
11918228,2125,1914,2152,2290,1745188046280209616
11919228,2086,1978,2152,2291,1745188046280209616
11920228,2036,2048,2119,2275,1745188046280209616
11921228,1987,2116,2083,2229,1745188046280209616
11922228,1944,2176,2057,2148,1745188046280209616
11923228,1911,2221,2061,2048,1745188046280209616
11924228,1897,2248,2098,1948,1745188046280209616
11925228,1896,2253,2150,1872,1745188046280209616
11926228,1910,2238,2196,1839,1745188046280209616
11927228,1941,2211,2211,1852,1745188046280209616
11928228,1981,2166,2176,1893,1745188046280209616
11929228,2027,2114,2099,1946,1745188046280209616
11930229,2075,2056,1996,1996,1745188046280209616
11931229,2115,2000,1894,2036,1745188046280209616
11932229,2146,1953,1825,2054,1745188046280209616
11933229,2168,1920,1800,2041,1745188046280209616
11934229,2168,1898,1827,2011,1745188046280209616
11935229,2161,1892,1891,1974,1745188046280209616
11936229,2148,1921,1993,1957,1745188046280209616
11937229,2149,1901,2033,1907,1745188046280209616
11938229,2102,1961,2092,1906,1745188046280209616
11939230,2069,2020,2133,1922,1745188046280209616
11940230,2016,2089,2169,1954,1745188046280209616
11941229,1957,2155,2200,1991,1745188046280209616
11942230,1898,2236,2226,2032,1745188046280209616
11943230,1856,2261,2248,2068,1745188046280209616
11944230,1832,2284,2250,2082,1745188046280209616
11945230,1833,2287,2228,2090,1745188046280209616
11946231,1857,2272,2190,2088,1745188046280209616
11947230,1894,2237,2146,2076,1745188046280209616
11948230,1944,2188,2106,2049,1745188046280209616
11949230,2001,2129,2074,2013,1745188046280209616
11950230,2059,2063,2049,1977,1745188046280209616
11951230,2113,2008,2028,1940,1745188046280209616
11952230,2155,1961,2011,1903,1745188046280209616
11953230,2182,1918,2000,1875,1745188046280209616
11954231,2197,1898,1995,1857,1745188046280209616
11955231,2204,1885,2003,1857,1745188046280209616
11956231,2198,1887,2018,1882,1745188046280209616
11957231,2180,1904,2029,1938,1745188046280209616
11958231,2147,1946,2021,2009,1745188046280209616
11959231,2104,2003,1999,2084,1745188046280209616
11960231,2057,2073,1969,2145,1745188046280209616
11961231,2013,2142,1948,2188,1745188046280209616
11962231,1979,2205,1939,2211,1745188046280209616
11963231,1959,2256,1937,2212,1745188046280209616
11964231,1955,2285,1938,2186,1745188046280209616
11965231,1959,2294,1944,2150,1745188046280209616
11966232,1970,2281,1963,2120,1745188046280209616
11967232,1988,2245,2009,2101,1745188046280209616
11968232,2013,2189,2094,2094,1745188046280209616
11969232,2050,2121,2190,2096,1745188046337486228
11970232,2088,2052,2269,2098,1745188046337486228
11971232,2116,1985,2307,2099,1745188046337486228
11972232,2125,1931,2307,2099,1745188046337486228
11973232,2120,1892,2275,2094,1745188046337486228
11974232,2104,1871,2212,2078,1745188046337486228
11975232,2086,1867,2126,2051,1745188046337486228
11976232,2074,1881,2042,2017,1745188046337486228
11977232,2068,1913,1990,1992,1745188046337486228
11978233,2070,1965,1981,1978,1745188046337486228
11979233,2074,2034,2019,1981,1745188046337486228
11980233,2079,2114,2092,1998,1745188046337486228
11981233,2082,2188,2170,2024,1745188046337486228
11982233,2084,2253,2242,2054,1745188046337486228
11983233,2086,2293,2299,2078,1745188046337486228
11984233,2089,2309,2344,2105,1745188046337486228
11985233,2094,2301,2376,2132,1745188046337486228
11986233,2103,2274,2392,2161,1745188046337486228
11987233,2113,2230,2397,2185,1745188046337486228
11988233,2123,2170,2404,2205,1745188046337486228
11989233,2138,2105,2418,2211,1745188046337486228
11990234,2152,2032,2444,2197,1745188046337486228
11991234,2163,1972,2472,2156,1745188046337486228
11992234,2168,1920,2505,2099,1745188046337486228
11993234,2160,1881,2544,2021,1745188046337486228
11994234,2133,1858,2614,1976,1745188046337486228
11995234,2095,1848,2720,1931,1745188046337486228
11996234,2049,1844,2866,1926,1745188046337486228
11997234,2032,1877,3018,1888,1745188046337486228
11998234,1965,1888,3154,1925,1745188046337486228
11999234,1936,1940,3302,1981,1745188046337486228
12000234,1912,2000,3375,2051,1745188046337486228
12001234,1896,2066,3355,2136,1745188046337486228
12002235,1884,2124,3265,2172,1745188046337486228
12003235,1893,2170,3156,2218,1745188046337486228
12004235,1917,2202,3050,2245,1745188046337486228
12005235,1955,2211,2936,2261,1745188046337486228
12006235,1997,2202,2810,2276,1745188046337486228
12007235,2035,2163,2666,2288,1745188046337486228
12008235,2072,2109,2526,2274,1745188046337486228
12009235,2103,2040,2398,2230,1745188046337486228
12010235,2128,1968,2316,2150,1745188046337486228
12011235,2147,1901,2272,2040,1745188046337486228
12012235,2162,1848,2253,1920,1745188046337486228
12013235,2177,1806,2249,1806,1745188046337486228
12014236,2194,1780,2252,1716,1745188046337486228
12015236,2210,1765,2237,1659,1745188046337486228
12016236,2227,1761,2201,1641,1745188046337486228
12017236,2237,1776,2154,1662,1745188046337486228
12018236,2237,1808,2100,1710,1745188046337486228
12019236,2225,1858,2040,1779,1745188046337486228
12020236,2198,1918,1979,1853,1745188046337486228
12021236,2162,1980,1918,1921,1745188046337486228
12022236,2124,2034,1860,1978,1745188046337486228
12023236,2090,2074,1808,2013,1745188046337486228
12024236,2070,2091,1765,2017,1745188046337486228
12025236,2061,2083,1729,1995,1745188046337486228
12026237,2064,2056,1704,1968,1745188046337486228
12027237,2070,2008,1686,1945,1745188046398077289
12028237,2082,1948,1678,1925,1745188046398077289
12029237,2093,1882,1677,1921,1745188046398077289
12030237,2102,1818,1692,1928,1745188046398077289
12031237,2107,1761,1723,1936,1745188046398077289
12032237,2104,1716,1764,1929,1745188046398077289
12033237,2098,1685,1810,1906,1745188046398077289
12034237,2090,1666,1845,1877,1745188046398077289
12035237,2078,1656,1857,1853,1745188046398077289
12036237,2061,1656,1881,1842,1745188046398077289
12037237,2042,1669,1893,1851,1745188046398077289
12038238,2019,1702,1900,1888,1745188046398077289
12039238,1994,1751,1901,1949,1745188046398077289
12040238,1964,1811,1897,2018,1745188046398077289
12041238,1932,1874,1893,2083,1745188046398077289
12042238,1902,1934,1893,2130,1745188046398077289
12043238,1877,1985,1896,2155,1745188046398077289
12044238,1862,2014,1900,2159,1745188046398077289
12045238,1856,2027,1894,2139,1745188046398077289
12046238,1860,2021,1865,2096,1745188046398077289
12047238,1874,1997,1812,2053,1745188046398077289
12048238,1890,1962,1751,1998,1745188046398077289
12049238,1904,1915,1694,1960,1745188046398077289
12050239,1904,1865,1662,1926,1745188046398077289
12051239,1894,1824,1647,1901,1745188046398077289
12052239,1880,1792,1642,1885,1745188046398077289
12053240,1865,1780,1650,1877,1745188046398077289
12054239,1878,1771,1638,1908,1745188046398077289
12055239,1833,1743,1598,1931,1745188046398077289
12056239,1854,1758,1565,2002,1745188046398077289
12057239,1866,1785,1529,2089,1745188046398077289
12058239,1878,1832,1475,2166,1745188046398077289
12059239,1886,1900,1421,2226,1745188046398077289
12060239,1892,1975,1365,2276,1745188046398077289
12061239,1886,2056,1310,2304,1745188046398077289
12062240,1876,2123,1261,2310,1745188046398077289
12063240,1864,2176,1225,2284,1745188046398077289
12064240,1862,2206,1210,2234,1745188046398077289
12065240,1869,2217,1218,2178,1745188046398077289
12066240,1888,2204,1249,2125,1745188046398077289
12067240,1910,2171,1300,2077,1745188046398077289
12068240,1934,2122,1365,2027,1745188046398077289
12069240,1956,2061,1437,1979,1745188046398077289
12070240,1971,2001,1508,1930,1745188046398077289
12071240,1985,1949,1564,1882,1745188046398077289
12072240,1996,1909,1610,1839,1745188046398077289
12073240,2007,1882,1635,1808,1745188046398077289
12074241,2021,1870,1636,1792,1745188046398077289
12075241,2036,1869,1615,1791,1745188046398077289
12076241,2057,1882,1582,1804,1745188046398077289
12077241,2071,1914,1546,1832,1745188046398077289
12078241,2083,1964,1524,1875,1745188046398077289
12079241,2072,2028,1505,1930,1745188046398077289
12080241,2058,2101,1488,1993,1745188046398077289
12081241,2031,2170,1482,2057,1745188046398077289
12082241,2003,2227,1481,2116,1745188046398077289
12083241,1968,2270,1485,2157,1745188046398077289
12084241,1945,2290,1497,2169,1745188046398077289
12085241,1928,2290,1517,2149,1745188046453423242
12086242,1921,2275,1542,2111,1745188046453423242
12087242,1925,2243,1584,2065,1745188046453423242
12088242,1940,2202,1625,2013,1745188046453423242
12089242,1962,2152,1659,1969,1745188046453423242
12090242,1985,2099,1692,1934,1745188046453423242
12091242,2004,2051,1725,1908,1745188046453423242
12092242,2020,2009,1758,1891,1745188046453423242
12093242,2027,1979,1794,1882,1745188046453423242
12094242,2030,1963,1830,1890,1745188046453423242
12095243,2025,1958,1873,1910,1745188046453423242
12096242,2016,1966,1922,1942,1745188046453423242
12097242,2002,1986,1985,1978,1745188046453423242
12098243,1985,2026,2058,2016,1745188046453423242
12099243,1968,2082,2126,2057,1745188046453423242
12100243,1946,2141,2177,2097,1745188046453423242
12101243,1925,2202,2200,2134,1745188046453423242
12102243,1912,2254,2195,2171,1745188046453423242
12103243,1901,2297,2168,2201,1745188046453423242
12104243,1901,2324,2126,2223,1745188046453423242
12105243,1907,2338,2078,2236,1745188046453423242
12106243,1922,2336,2027,2233,1745188046453423242
12107243,1938,2317,1974,2217,1745188046453423242
12108243,1969,2284,1924,2187,1745188046453423242
12109244,2000,2227,1880,2155,1745188046453423242
12110244,2033,2163,1837,2121,1745188046453423242
12111244,2062,2092,1802,2098,1745188046453423242
12112244,2093,2050,1768,2077,1745188046453423242
12113244,2112,2005,1734,2062,1745188046453423242
12114244,2119,1974,1723,2077,1745188046453423242
12115244,2148,1976,1694,2042,1745188046453423242
12116244,2120,1953,1660,2061,1745188046453423242
12117244,2115,1968,1651,2083,1745188046453423242
12118244,2104,2003,1645,2107,1745188046453423242
12119244,2087,2066,1645,2139,1745188046453423242
12120244,2062,2136,1652,2159,1745188046453423242
12121244,2040,2213,1666,2182,1745188046453423242
12122245,2024,2285,1676,2204,1745188046453423242
12123245,2012,2342,1683,2224,1745188046453423242
12124245,2008,2382,1681,2239,1745188046453423242
12125245,2012,2405,1674,2251,1745188046453423242
12126245,2026,2409,1664,2257,1745188046453423242
12127245,2050,2386,1659,2262,1745188046453423242
12128245,2078,2340,1665,2258,1745188046453423242
12129245,2106,2283,1678,2252,1745188046453423242
12130245,2134,2219,1700,2253,1745188046453423242
12131245,2158,2148,1724,2262,1745188046453423242
12132245,2177,2088,1747,2269,1745188046453423242
12133245,2191,2035,1765,2268,1745188046453423242
12134246,2198,2011,1781,2259,1745188046453423242
12135246,2202,2044,1800,2250,1745188046453423242
12136246,2201,2127,1825,2241,1745188046453423242
12137246,2191,2204,1854,2235,1745188046453423242
12138246,2177,2254,1892,2229,1745188046453423242
12139246,2156,2286,1926,2235,1745188046453423242
12140246,2130,2321,1952,2246,1745188046453423242
12141246,2108,2361,1964,2259,1745188046453423242
12142246,2089,2403,1968,2269,1745188046453423242
12143246,2075,2443,1965,2268,1745188046513086863
12144246,2066,2467,1958,2253,1745188046513086863
12145246,2067,2474,1952,2232,1745188046513086863
12146247,2076,2454,1941,2205,1745188046513086863
12147247,2092,2404,1933,2188,1745188046513086863
12148247,2114,2339,1924,2182,1745188046513086863
12149247,2137,2279,1920,2190,1745188046513086863
12150247,2157,2237,1918,2202,1745188046513086863
12151247,2176,2216,1920,2213,1745188046513086863
12152247,2189,2194,1925,2218,1745188046513086863
12153247,2195,2162,1935,2217,1745188046513086863
12154247,2194,2121,1946,2211,1745188046513086863
12155247,2189,2077,1960,2191,1745188046513086863
12156247,2180,2036,1978,2162,1745188046513086863
12157247,2166,2009,2001,2137,1745188046513086863
12158248,2147,2004,2024,2129,1745188046513086863
12159248,2117,2052,2048,2140,1745188046513086863
12160248,2081,2136,2076,2165,1745188046513086863
12161248,2042,2221,2109,2196,1745188046513086863
12162248,2008,2299,2150,2218,1745188046513086863
12163248,1984,2357,2193,2232,1745188046513086863
12164248,1969,2401,2226,2236,1745188046513086863
12165249,1966,2424,2244,2224,1745188046513086863
12166248,1973,2424,2252,2195,1745188046513086863
12167248,1993,2393,2255,2162,1745188046513086863
12168249,2017,2321,2278,2147,1745188046513086863
12169248,2068,2251,2280,2072,1745188046513086863
12170249,2072,2150,2265,2056,1745188046513086863
12171249,2100,2116,2272,1998,1745188046513086863
12172249,2121,2102,2298,1965,1745188046513086863
12173249,2126,2104,2319,1941,1745188046513086863
12174249,2129,2118,2340,1924,1745188046513086863
12175249,2127,2132,2360,1917,1745188046513086863
12176249,2114,2128,2383,1928,1745188046513086863
12177249,2101,2107,2403,1960,1745188046513086863
12178249,2083,2091,2423,1998,1745188046513086863
12179249,2060,2104,2438,2036,1745188046513086863
12180249,2038,2141,2447,2076,1745188046513086863
12181249,2013,2182,2457,2114,1745188046513086863
12182250,1989,2218,2469,2136,1745188046513086863
12183250,1976,2241,2485,2128,1745188046513086863
12184250,1968,2244,2499,2085,1745188046513086863
12185250,1977,2230,2507,2022,1745188046513086863
12186250,1992,2198,2513,1960,1745188046513086863
12187250,2017,2152,2517,1913,1745188046513086863
12188250,2048,2088,2520,1888,1745188046513086863
12189250,2078,2014,2521,1905,1745188046513086863
12190250,2107,1947,2522,1955,1745188046513086863
12191250,2132,1884,2520,2015,1745188046513086863
12192250,2148,1837,2515,2068,1745188046513086863
12193250,2160,1802,2507,2107,1745188046513086863
12194251,2161,1784,2502,2125,1745188046513086863
12195251,2156,1773,2493,2131,1745188046513086863
12196251,2148,1770,2481,2122,1745188046513086863
12197251,2137,1786,2464,2101,1745188046513086863
12198251,2121,1827,2448,2087,1745188046513086863
12199251,2100,1888,2435,2079,1745188046513086863
12200251,2078,1950,2425,2062,1745188046513086863
12201251,2058,2012,2422,2034,1745188046568357765
12202251,2040,2069,2426,2011,1745188046568357765
12203251,2028,2113,2428,1994,1745188046568357765
12204251,2029,2139,2422,1981,1745188046568357765
12205251,2038,2145,2396,1980,1745188046568357765
12206252,2059,2131,2367,2001,1745188046568357765
12207252,2077,2102,2330,2036,1745188046568357765
12208252,2104,2061,2292,2073,1745188046568357765
12209252,2125,2011,2264,2088,1745188046568357765
12210253,2147,1964,2244,2075,1745188046568357765
12211252,2161,1920,2234,2038,1745188046568357765
12212253,2166,1884,2226,1978,1745188046568357765
12213252,2171,1852,2219,1898,1745188046568357765
12214252,2173,1828,2213,1813,1745188046568357765
12215252,2172,1809,2209,1748,1745188046568357765
12216252,2165,1802,2205,1719,1745188046568357765
12217252,2156,1802,2202,1724,1745188046568357765
12218253,2140,1821,2198,1761,1745188046568357765
12219253,2121,1855,2194,1818,1745188046568357765
12220253,2097,1899,2195,1890,1745188046568357765
12221253,2072,1946,2209,1968,1745188046568357765
12222253,2050,1988,2220,2026,1745188046568357765
12223253,2030,2020,2233,2097,1745188046568357765
12224253,2021,2034,2227,2134,1745188046568357765
12225253,2020,2028,2212,2156,1745188046568357765
12226255,2027,2008,2192,2153,1745188046568357765
12227254,2038,1972,2171,2128,1745188046568357765
12228253,2078,1921,2148,2081,1745188046568357765
12229253,2097,1884,2148,2039,1745188046568357765
12230254,2074,1793,2114,1957,1745188046568357765
12231254,2109,1745,2104,1908,1745188046568357765
12232254,2125,1678,2073,1877,1745188046568357765
12233254,2132,1645,2035,1864,1745188046568357765
12234254,2130,1614,1995,1864,1745188046568357765
12235254,2132,1595,1973,1872,1745188046568357765
12236254,2121,1590,1985,1874,1745188046568357765
12237254,2100,1600,2034,1868,1745188046568357765
12238254,2073,1624,2113,1861,1745188046568357765
12239254,2040,1666,2182,1862,1745188046568357765
12240254,2006,1719,2213,1877,1745188046568357765
12241254,1974,1773,2203,1904,1745188046568357765
12242255,1948,1822,2157,1941,1745188046568357765
12243255,1925,1862,2093,1981,1745188046568357765
12244255,1911,1887,2024,2011,1745188046568357765
12245255,1902,1894,1969,2022,1745188046568357765
12246255,1899,1889,1944,2022,1745188046568357765
12247255,1894,1872,1948,2009,1745188046568357765
12248255,1893,1835,1968,1980,1745188046568357765
12249255,1896,1793,1989,1948,1745188046568357765
12250255,1900,1747,1996,1917,1745188046568357765
12251255,1911,1705,1980,1900,1745188046568357765
12252255,1929,1670,1952,1894,1745188046568357765
12253255,1949,1644,1921,1898,1745188046568357765
12254256,1971,1630,1892,1900,1745188046568357765
12255256,1989,1628,1866,1896,1745188046568357765
12256256,2005,1636,1864,1889,1745188046568357765
12257256,2011,1657,1858,1885,1745188046568357765
12258256,2012,1693,1876,1884,1745188046568357765
12259256,2002,1745,1909,1887,1745188046629577570
12260256,1986,1808,1948,1898,1745188046629577570
12261256,1966,1878,1985,1923,1745188046629577570
12262256,1950,1933,2008,1961,1745188046629577570
12263256,1942,1982,2006,2003,1745188046629577570
12264256,1944,2014,1984,2041,1745188046629577570
12265256,1946,2027,1945,2074,1745188046629577570
12266257,1957,2024,1901,2097,1745188046629577570
12267257,1971,2001,1857,2114,1745188046629577570
12268257,1984,1968,1812,2121,1745188046629577570
12269257,1998,1928,1770,2115,1745188046629577570
12270257,2013,1889,1732,2088,1745188046629577570
12271257,2025,1855,1714,2053,1745188046629577570
12272257,2033,1829,1729,2016,1745188046629577570
12273257,2037,1816,1775,1984,1745188046629577570
12274257,2039,1808,1850,1955,1745188046629577570
12275257,2034,1809,1952,1930,1745188046629577570
12276257,2025,1819,2061,1904,1745188046629577570
12277257,2013,1836,2148,1882,1745188046629577570
12278258,1995,1867,2203,1865,1745188046629577570
12279258,1971,1910,2224,1854,1745188046629577570
12280258,1949,1961,2220,1860,1745188046629577570
12281258,1926,2014,2203,1884,1745188046629577570
12282259,1907,2064,2169,1921,1745188046629577570
12283258,1892,2104,2130,1969,1745188046629577570
12284258,1884,2131,2093,2040,1745188046629577570
12285258,1902,2164,2092,2075,1745188046629577570
12286258,1875,2136,2073,2070,1745188046629577570
12287258,1892,2125,2088,2071,1745188046629577570
12288258,1906,2100,2098,2053,1745188046629577570
12289258,1926,2068,2094,2032,1745188046629577570
12290259,1942,2028,2074,2016,1745188046629577570
12291259,1956,1994,2050,2002,1745188046629577570
12292259,1969,1964,2038,1995,1745188046629577570
12293259,1978,1942,2053,1990,1745188046629577570
12294259,1982,1931,2080,1993,1745188046629577570
12295259,1982,1934,2101,2006,1745188046629577570
12296259,1981,1934,2114,2036,1745188046629577570
12297259,1977,1946,2107,2081,1745188046629577570
12298259,1970,1976,2088,2120,1745188046629577570
12299259,1957,2016,2066,2142,1745188046629577570
12300259,1939,2067,2041,2148,1745188046629577570
12301259,1922,2120,2022,2138,1745188046629577570
12302260,1906,2168,2009,2110,1745188046629577570
12303260,1898,2209,1995,2076,1745188046629577570
12304260,1894,2238,1988,2033,1745188046629577570
12305260,1894,2253,1987,1998,1745188046629577570
12306260,1900,2252,1983,1973,1745188046629577570
12307260,1906,2242,1976,1966,1745188046629577570
12308260,1916,2219,1970,1973,1745188046629577570
12309260,1929,2185,1960,1993,1745188046629577570
12310260,1944,2149,1956,2018,1745188046629577570
12311260,1960,2112,1970,2048,1745188046629577570
12312260,1974,2080,1997,2070,1745188046629577570
12313260,1985,2057,2020,2094,1745188046629577570
12314261,1990,2040,2030,2110,1745188046629577570
12315261,1990,2034,2034,2115,1745188046629577570
12316261,1986,2039,2052,2112,1745188046629577570
12317261,1972,2060,2082,2109,1745188046685214562
12318261,1954,2093,2129,2112,1745188046685214562
12319261,1932,2138,2190,2116,1745188046685214562
12320261,1906,2196,2249,2123,1745188046685214562
12321261,1886,2252,2275,2129,1745188046685214562
12322261,1878,2302,2262,2134,1745188046685214562
12323261,1883,2340,2245,2140,1745188046685214562
12324261,1890,2365,2218,2142,1745188046685214562
12325261,1902,2377,2217,2139,1745188046685214562
12326262,1921,2374,2224,2131,1745188046685214562
12327262,1940,2361,2226,2126,1745188046685214562
12328262,1965,2333,2212,2132,1745188046685214562
12329262,1993,2297,2196,2158,1745188046685214562
12330262,2028,2257,2181,2197,1745188046685214562
12331262,2067,2209,2172,2234,1745188046685214562
12332262,2109,2184,2172,2261,1745188046685214562
12333262,2145,2154,2179,2272,1745188046685214562
12334262,2172,2131,2186,2269,1745188046685214562
12335262,2193,2117,2188,2238,1745188046685214562
12336262,2215,2114,2178,2179,1745188046685214562
12337262,2236,2123,2155,2101,1745188046685214562
12338263,2249,2148,2132,2033,1745188046685214562
12339263,2252,2184,2110,1999,1745188046685214562
12340264,2244,2220,2093,1998,1745188046685214562
12341263,2233,2266,2074,2010,1745188046685214562
12342263,2214,2302,2049,2068,1745188046685214562
12343263,2200,2332,2019,2106,1745188046685214562
12344263,2184,2354,1988,2137,1745188046685214562
12345263,2173,2362,1974,2161,1745188046685214562
12346263,2186,2388,1990,2197,1745188046685214562
12347263,2182,2331,1978,2179,1745188046685214562
12348263,2163,2318,2005,2181,1745188046685214562
12349263,2170,2290,2039,2178,1745188046685214562
12350264,2179,2257,2066,2171,1745188046685214562
12351264,2187,2226,2081,2152,1745188046685214562
12352264,2193,2195,2083,2130,1745188046685214562
12353264,2198,2171,2105,2114,1745188046685214562
12354264,2201,2157,2125,2107,1745188046685214562
12355264,2201,2152,2152,2113,1745188046685214562
12356264,2195,2156,2178,2132,1745188046685214562
12357264,2190,2169,2191,2165,1745188046685214562
12358264,2178,2193,2180,2206,1745188046685214562
12359264,2163,2224,2141,2248,1745188046685214562
12360264,2145,2260,2083,2285,1745188046685214562
12361264,2122,2298,2019,2318,1745188046685214562
12362265,2102,2330,1966,2346,1745188046685214562
12363265,2087,2357,1933,2366,1745188046685214562
12364265,2080,2371,1925,2374,1745188046685214562
12365265,2081,2376,1938,2364,1745188046685214562
12366265,2089,2368,1970,2324,1745188046685214562
12367265,2100,2351,2009,2267,1745188046685214562
12368265,2117,2324,2052,2202,1745188046685214562
12369265,2130,2290,2088,2133,1745188046685214562
12370265,2147,2251,2110,2066,1745188046685214562
12371265,2157,2211,2112,2006,1745188046685214562
12372265,2165,2177,2101,1960,1745188046685214562
12373265,2166,2152,2091,1924,1745188046685214562
12374266,2164,2133,2080,1900,1745188046685214562
12375266,2157,2124,2070,1877,1745188046759404717
12376266,2146,2122,2064,1859,1745188046759404717
12377266,2136,2128,2060,1864,1745188046759404717
12378266,2119,2146,2062,1899,1745188046759404717
12379266,2101,2176,2065,1954,1745188046759404717
12380266,2081,2211,2074,2010,1745188046759404717
12381266,2062,2250,2079,2065,1745188046759404717
12382266,2041,2285,2085,2114,1745188046759404717
12383266,2027,2315,2089,2162,1745188046759404717
12384266,2017,2337,2092,2201,1745188046759404717
12385266,2013,2346,2093,2224,1745188046759404717
12386267,2013,2346,2096,2230,1745188046759404717
12387267,2014,2336,2096,2223,1745188046759404717
12388267,2016,2313,2094,2208,1745188046759404717
12389267,2017,2281,2093,2186,1745188046759404717
12390267,2025,2245,2096,2169,1745188046759404717
12391267,2036,2211,2104,2159,1745188046759404717
12392267,2051,2184,2114,2158,1745188046759404717
12393267,2062,2160,2121,2162,1745188046759404717
12394267,2072,2146,2123,2163,1745188046759404717
12395267,2073,2140,2120,2160,1745188046759404717
12396267,2069,2144,2118,2149,1745188046759404717
12397267,2058,2156,2115,2132,1745188046759404717
12398268,2040,2180,2105,2116,1745188046759404717
12399268,2028,2210,2088,2113,1745188046759404717
12400268,2017,2246,2060,2122,1745188046759404717
12401268,2012,2282,2027,2156,1745188046759404717
12402268,2032,2337,2014,2158,1745188046759404717
12403268,2004,2328,1967,2126,1745188046759404717
12404268,2033,2342,1953,2113,1745188046759404717
12405268,2061,2340,1949,2099,1745188046759404717
12406268,2094,2318,1955,2084,1745188046759404717
12407268,2125,2287,1965,2057,1745188046759404717
12408268,2173,2246,1968,1998,1745188046759404717
12409268,2173,2202,1961,1911,1745188046759404717
12410269,2186,2154,1952,1817,1745188046759404717
12411269,2192,2108,1944,1746,1745188046759404717
12412269,2194,2068,1941,1713,1745188046759404717
12413269,2192,2039,1944,1721,1745188046759404717
12414269,2188,2020,1956,1779,1745188046759404717
12415269,2174,2019,1978,1878,1745188046759404717
12416269,2156,2032,2006,1998,1745188046759404717
12417269,2139,2059,2032,2116,1745188046759404717
12418269,2122,2092,2056,2202,1745188046759404717
12419269,2107,2133,2068,2251,1745188046759404717
12420269,2090,2172,2076,2264,1745188046759404717
12421269,2077,2204,2077,2254,1745188046759404717
12422270,2069,2227,2070,2237,1745188046759404717
12423270,2064,2242,2056,2218,1745188046759404717
12424270,2058,2246,2041,2203,1745188046759404717
12425270,2059,2241,2034,2195,1745188046759404717
12426270,2066,2228,2038,2195,1745188046759404717
12427270,2080,2208,2050,2200,1745188046759404717
12428270,2096,2178,2062,2210,1745188046759404717
12429270,2112,2140,2072,2209,1745188046759404717
12430270,2124,2100,2057,2196,1745188046759404717
12431270,2130,2059,2021,2169,1745188046759404717
12432270,2128,2021,1982,2122,1745188046759404717
12433270,2121,1994,1952,2053,1745188046798178113
12434271,2110,1976,1940,1970,1745188046798178113
12435271,2101,1964,1956,1892,1745188046798178113
12436271,2091,1963,2002,1822,1745188046798178113
12437271,2086,1968,2054,1763,1745188046798178113
12438271,2089,1980,2093,1720,1745188046798178113
12439271,2099,1998,2113,1703,1745188046798178113
12440271,2112,2022,2121,1720,1745188046798178113
12441271,2120,2052,2121,1756,1745188046798178113
12442271,2120,2076,2121,1804,1745188046798178113
12443271,2114,2096,2129,1853,1745188046798178113
12444271,2104,2106,2141,1893,1745188046798178113
12445271,2096,2108,2160,1922,1745188046798178113
12446272,2085,2099,2187,1931,1745188046798178113
12447272,2076,2085,2210,1924,1745188046798178113
12448272,2073,2059,2236,1904,1745188046798178113
12449272,2077,2020,2253,1871,1745188046798178113
12450272,2089,1981,2256,1841,1745188046798178113
12451272,2103,1940,2242,1818,1745188046798178113
12452272,2105,1902,2216,1804,1745188046798178113
12453272,2090,1869,2185,1798,1745188046798178113
12454272,2060,1842,2161,1813,1745188046798178113
12455272,2029,1826,2149,1851,1745188046798178113
12456272,2002,1819,2144,1906,1745188046798178113
12457272,1985,1820,2148,1956,1745188046798178113
12458273,1982,1829,2159,2003,1745188046798178113
12459273,1989,1838,2172,1996,1745188046798178113
12460273,2004,1876,2180,1990,1745188046798178113
12461273,2021,1906,2172,1976,1745188046798178113
12462273,2048,1938,2154,1949,1745188046798178113
12463273,2079,1964,2128,1919,1745188046798178113
12464273,2117,1982,2098,1902,1745188046798178113
12465273,2153,1992,2074,1899,1745188046798178113
12466273,2181,1992,2057,1899,1745188046798178113
12467273,2208,1982,2054,1902,1745188046798178113
12468273,2240,1960,2062,1914,1745188046798178113
12469273,2277,1924,2069,1941,1745188046798178113
12470274,2317,1884,2070,1974,1745188046798178113
12471274,2345,1841,2062,2008,1745188046798178113
12472274,2360,1798,2048,2027,1745188046798178113
12473274,2354,1765,2024,2029,1745188046798178113
12474274,2331,1744,2005,2021,1745188046798178113
12475274,2299,1728,2002,2017,1745188046798178113
12476274,2277,1710,2038,1989,1745188046798178113
12477274,2170,1728,2037,1963,1745188046798178113
12478274,2136,1753,2050,1970,1745188046798178113
12479274,2080,1786,2034,1964,1745188046798178113
12480274,2021,1827,1998,1941,1745188046798178113
12481274,1968,1869,1954,1912,1745188046798178113
12482275,1920,1906,1923,1900,1745188046798178113
12483275,1875,1935,1929,1926,1745188046798178113
12484275,1837,1960,1969,1970,1745188046798178113
12485275,1817,1973,2030,2009,1745188046798178113
12486275,1818,1972,2105,2031,1745188046798178113
12487275,1845,1961,2182,2050,1745188046798178113
12488275,1887,1934,2254,2070,1745188046798178113
12489275,1936,1895,2307,2101,1745188046798178113
12490275,1978,1851,2327,2137,1745188046798178113
12491275,2016,1806,2306,2165,1745188046860483429
12492275,2052,1768,2245,2187,1745188046860483429
12493275,2081,1736,2162,2201,1745188046860483429
12494276,2100,1715,2064,2203,1745188046860483429
12495276,2110,1700,1962,2188,1745188046860483429
12496276,2108,1695,1877,2172,1745188046860483429
12497276,2100,1700,1819,2159,1745188046860483429
12498276,2088,1716,1784,2146,1745188046860483429
12499276,2073,1750,1765,2130,1745188046860483429
12500276,2058,1795,1758,2123,1745188046860483429
12501276,2034,1841,1767,2141,1745188046860483429
12502276,2012,1886,1781,2187,1745188046860483429
12503276,1997,1927,1795,2242,1745188046860483429
12504276,1992,1959,1797,2285,1745188046860483429
12505276,1997,1977,1784,2307,1745188046860483429
12506277,2010,1980,1759,2307,1745188046860483429
12507277,2021,1974,1736,2285,1745188046860483429
12508277,2028,1950,1717,2232,1745188046860483429
12509277,2032,1920,1710,2130,1745188046860483429
12510277,2031,1883,1714,1997,1745188046860483429
12511277,2029,1845,1731,1857,1745188046860483429
12512277,2020,1811,1753,1729,1745188046860483429
12513277,2006,1782,1773,1630,1745188046860483429
12514277,1989,1760,1782,1578,1745188046860483429
12515277,1968,1745,1789,1581,1745188046860483429
12516277,1947,1745,1798,1635,1745188046860483429
12517277,1928,1761,1815,1718,1745188046860483429
12518278,1917,1788,1865,1828,1745188046860483429
12519278,1901,1825,1865,1893,1745188046860483429
12520278,1923,1880,1888,1968,1745188046860483429
12521278,1936,1931,1902,2021,1745188046860483429
12522278,1964,1979,1909,2032,1745188046860483429
12523278,1988,2015,1907,2020,1745188046860483429
12524278,2005,2040,1901,2002,1745188046860483429
12525278,2018,2053,1894,1991,1745188046860483429
12526278,2026,2054,1893,1990,1745188046860483429
12527278,2032,2048,1901,1998,1745188046860483429
12528278,2037,2028,1916,2016,1745188046860483429
12529278,2056,2005,1939,2050,1745188046860483429
12530279,2077,1977,1968,2102,1745188046860483429
12531279,2099,1950,2003,2166,1745188046860483429
12532279,2123,1931,2037,2229,1745188046860483429
12533279,2137,1917,2068,2271,1745188046860483429
12534279,2148,1918,2084,2292,1745188046860483429
12535279,2155,1924,2097,2293,1745188046860483429
12536279,2161,1938,2110,2285,1745188046860483429
12537279,2158,1959,2128,2272,1745188046860483429
12538279,2139,1984,2149,2265,1745188046860483429
12539279,2108,2017,2171,2258,1745188046860483429
12540279,2072,2060,2179,2235,1745188046860483429
12541279,2036,2099,2174,2197,1745188046860483429
12542280,2007,2134,2162,2149,1745188046860483429
12543280,1982,2162,2147,2084,1745188046860483429
12544280,1973,2178,2131,2005,1745188046860483429
12545280,1976,2182,2110,1930,1745188046860483429
12546280,1986,2177,2090,1878,1745188046860483429
12547280,2002,2165,2077,1848,1745188046860483429
12548280,2024,2146,2078,1811,1745188046860483429
12549280,2052,2118,2084,1758,1745188046922494009
12550280,2083,2082,2094,1705,1745188046922494009
12551280,2109,2043,2099,1654,1745188046922494009
12552280,2120,2010,2098,1622,1745188046922494009
12553280,2126,1979,2096,1626,1745188046922494009
12554281,2124,1956,2094,1678,1745188046922494009
12555281,2116,1938,2101,1784,1745188046922494009
12556281,2105,1929,2113,1920,1745188046922494009
12557281,2085,1931,2125,2050,1745188046922494009
12558281,2070,1942,2131,2133,1745188046922494009
12559281,2044,1973,2127,2169,1745188046922494009
12560282,2009,2016,2124,2161,1745188046922494009
12561281,1978,2068,2130,2139,1745188046922494009
12562281,1954,2117,2141,2141,1745188046922494009
12563281,1938,2153,2158,2185,1745188046922494009
12564281,1929,2176,2170,2274,1745188046922494009
12565281,1925,2187,2179,2400,1745188046922494009
12566282,1924,2189,2184,2529,1745188046922494009
12567282,1928,2188,2185,2620,1745188046922494009
12568282,1934,2176,2182,2657,1745188046922494009
12569282,1946,2153,2174,2617,1745188046922494009
12570282,1959,2123,2164,2513,1745188046922494009
12571282,1976,2092,2152,2359,1745188046922494009
12572282,1987,2060,2141,2200,1745188046922494009
12573282,1999,2033,2137,2056,1745188046922494009
12574282,2008,2009,2140,1944,1745188046922494009
12575282,2014,1995,2141,1875,1745188046922494009
12576282,2016,1986,2144,1830,1745188046922494009
12577282,2011,1990,2137,1785,1745188046922494009
12578283,2001,2000,2122,1679,1745188046922494009
12579283,1987,2031,2110,1570,1745188046922494009
12580283,1972,2069,2107,1520,1745188046922494009
12581283,1974,2085,2126,1500,1745188046922494009
12582283,1962,2126,2112,1523,1745188046922494009
12583283,1934,2144,2108,1595,1745188046922494009
12584283,1932,2166,2105,1705,1745188046922494009
12585283,1937,2168,2112,1843,1745188046922494009
12586283,1944,2165,2126,2000,1745188046922494009
12587283,1951,2166,2148,2160,1745188046922494009
12588283,1959,2164,2176,2293,1745188046922494009
12589283,1967,2161,2209,2387,1745188046922494009
12590284,1982,2148,2233,2414,1745188046922494009
12591284,1997,2128,2244,2368,1745188046922494009
12592284,2011,2110,2241,2267,1745188046922494009
12593284,2018,2099,2232,2168,1745188046922494009
12594284,2017,2092,2226,2109,1745188046922494009
12595284,2011,2091,2224,2100,1745188046922494009
12596284,2002,2091,2221,2137,1745188046922494009
12597284,2000,2094,2216,2192,1745188046922494009
12598284,2008,2100,2211,2249,1745188046922494009
12599284,2015,2117,2213,2282,1745188046922494009
12600284,2019,2145,2214,2278,1745188046922494009
12601284,2018,2176,2217,2236,1745188046922494009
12602285,2013,2202,2212,2154,1745188046922494009
12603285,2007,2222,2207,2048,1745188046922494009
12604285,2001,2236,2194,1931,1745188046922494009
12605285,2002,2249,2177,1805,1745188046922494009
12606285,2007,2242,2160,1693,1745188046922494009
12607285,2014,2235,2148,1620,1745188046978185115
12608285,2022,2213,2132,1625,1745188046978185115
12609285,2027,2180,2116,1716,1745188046978185115
12610285,2033,2138,2099,1891,1745188046978185115
12611285,2035,2096,2089,2122,1745188046978185115
12612285,2041,2064,2090,2347,1745188046978185115
12613285,2044,2041,2102,2523,1745188046978185115
12614286,2051,2027,2117,2604,1745188046978185115
12615286,2052,2022,2130,2598,1745188046978185115
12616286,2052,2025,2138,2516,1745188046978185115
12617286,2043,2037,2140,2379,1745188046978185115
12618286,2031,2064,2138,2244,1745188046978185115
12619286,2016,2099,2137,2132,1745188046978185115
12620286,2001,2140,2132,2053,1745188046978185115
12621286,1986,2187,2123,2019,1745188046978185115
12622286,1976,2234,2112,2051,1745188046978185115
12623286,1969,2273,2102,2109,1745188046978185115
12624286,1966,2303,2096,2133,1745188046978185115
12625286,1968,2321,2093,2087,1745188046978185115
12626287,1974,2330,2089,1997,1745188046978185115
12627287,1982,2325,2086,1928,1745188046978185115
12628287,1994,2302,2081,1883,1745188046978185115
12629287,2009,2262,2072,1853,1745188046978185115
12630287,2021,2210,2060,1814,1745188046978185115
12631287,2039,2156,2048,1772,1745188046978185115
12632287,2056,2106,2038,1733,1745188046978185115
12633287,2067,2063,2036,1712,1745188046978185115
12634287,2069,2026,2036,1737,1745188046978185115
12635287,2064,2001,2052,1878,1745188046978185115
12636288,2059,1986,2080,2107,1745188046978185115
12637287,2043,1993,2114,2330,1745188046978185115
12638288,2030,2018,2164,2508,1745188046978185115
12639288,2038,2048,2187,2559,1745188046978185115
12640288,1992,2092,2161,2510,1745188046978185115
12641288,1988,2166,2177,2482,1745188046978185115
12642288,1992,2155,2131,2412,1745188046978185115
12643288,1961,2195,2135,2407,1745188046978185115
12644288,1958,2213,2138,2425,1745188046978185115
12645288,1948,2237,2174,2466,1745188046978185115
12646288,1986,2176,2140,2427,1745188046978185115
12647288,1965,2208,2189,2420,1745188046978185115
12648288,2003,2157,2185,2357,1745188046978185115
12649288,2017,2105,2176,2270,1745188046978185115
12650289,2030,2042,2162,2156,1745188046978185115
12651289,2026,1963,2132,2030,1745188046978185115
12652289,2051,1908,2113,1936,1745188046978185115
12653289,2061,1857,2096,1886,1745188046978185115
12654289,2067,1815,2080,1891,1745188046978185115
12655289,2066,1787,2072,1940,1745188046978185115
12656289,2061,1772,2076,2004,1745188046978185115
12657289,2052,1771,2097,2069,1745188046978185115
12658289,2033,1786,2129,2104,1745188046978185115
12659289,2012,1816,2160,2101,1745188046978185115
12660289,1985,1862,2186,2084,1745188046978185115
12661289,1958,1915,2202,2084,1745188046978185115
12662290,1937,1970,2208,2082,1745188046978185115
12663290,1921,2014,2203,2054,1745188046978185115
12664290,1912,2050,2192,2001,1745188046978185115
12665290,1909,2068,2178,1933,1745188047036036826
12666290,1910,2074,2169,1854,1745188047036036826
12667290,1916,2061,2165,1806,1745188047036036826
12668290,1928,2032,2172,1818,1745188047036036826
12669290,1941,1992,2183,1873,1745188047036036826
12670290,1960,1948,2193,1958,1745188047036036826
12671290,1975,1905,2197,2053,1745188047036036826
12672290,1984,1864,2195,2149,1745188047036036826
12673290,1994,1834,2188,2219,1745188047036036826
12674291,1992,1816,2184,2258,1745188047036036826
12675291,1988,1812,2187,2281,1745188047036036826
12676291,1981,1822,2197,2286,1745188047036036826
12677291,1971,1843,2212,2265,1745188047036036826
12678291,1957,1881,2226,2234,1745188047036036826
12679291,1939,1931,2236,2204,1745188047036036826
12680291,1920,1990,2241,2166,1745188047036036826
12681291,1900,2056,2238,2109,1745188047036036826
12682291,1883,2115,2229,2034,1745188047036036826
12683291,1867,2165,2214,1979,1745188047036036826
12684291,1856,2202,2196,1956,1745188047036036826
12685291,1847,2220,2181,1976,1745188047036036826
12686292,1848,2222,2169,2050,1745188047036036826
12687292,1850,2210,2163,2137,1745188047036036826
12688292,1859,2181,2159,2188,1745188047036036826
12689292,1874,2136,2156,2180,1745188047036036826
12690292,1892,2083,2148,2099,1745188047036036826
12691293,1912,2027,2138,1958,1745188047036036826
12692294,1929,1981,2130,1805,1745188047036036826
12693292,1944,1942,2132,1668,1745188047036036826
12694292,1949,1914,2145,1582,1745188047036036826
12695294,1958,1917,2180,1564,1745188047036036826
12696292,1898,1890,2164,1656,1745188047036036826
12697292,1854,1904,2172,1804,1745188047036036826
12698293,1814,1933,2183,1938,1745188047036036826
12699293,1785,1976,2201,2025,1745188047036036826
12700293,1762,2034,2219,2038,1745188047036036826
12701293,1745,2100,2240,1958,1745188047036036826
12702293,1735,2157,2250,1825,1745188047036036826
12703293,1738,2205,2252,1717,1745188047036036826
12704293,1746,2236,2244,1696,1745188047036036826
12705293,1766,2251,2229,1762,1745188047036036826
12706293,1797,2248,2211,1890,1745188047036036826
12707293,1834,2228,2188,2017,1745188047036036826
12708293,1877,2200,2164,2124,1745188047036036826
12709293,1924,2169,2154,2176,1745188047036036826
12710294,1969,2136,2154,2186,1745188047036036826
12711294,2019,2101,2156,2185,1745188047036036826
12712294,2064,2073,2157,2180,1745188047036036826
12713294,2101,2049,2155,2169,1745188047036036826
12714294,2126,2033,2148,2156,1745188047036036826
12715294,2145,2029,2138,2155,1745188047036036826
12716294,2155,2031,2129,2152,1745188047036036826
12717294,2162,2050,2120,2130,1745188047036036826
12718294,2162,2056,2108,2115,1745188047036036826
12719294,2157,2090,2098,2108,1745188047036036826
12720294,2146,2139,2085,2115,1745188047036036826
12721294,2133,2194,2074,2134,1745188047036036826
12722295,2118,2250,2049,2162,1745188047036036826
12723295,2108,2299,2024,2172,1745188047094154211
12724295,2104,2340,2003,2129,1745188047094154211
12725295,2108,2365,1979,2043,1745188047094154211
12726295,2121,2376,1955,1950,1745188047094154211
12727295,2138,2370,1932,1888,1745188047094154211
12728295,2156,2350,1918,1875,1745188047094154211
12729295,2177,2316,1922,1878,1745188047094154211
12730295,2195,2279,1943,1852,1745188047094154211
12731295,2214,2241,1965,1798,1745188047094154211
12732295,2230,2201,1990,1741,1745188047094154211
12733295,2244,2162,1997,1712,1745188047094154211
12734296,2254,2128,1994,1748,1745188047094154211
12735296,2258,2104,1989,1873,1745188047094154211
12736296,2259,2099,1985,2037,1745188047094154211
12737296,2252,2113,1981,2180,1745188047094154211
12738296,2238,2138,1971,2282,1745188047094154211
12739296,2219,2184,1963,2338,1745188047094154211
12740296,2195,2241,1954,2369,1745188047094154211
12741296,2169,2298,1947,2366,1745188047094154211
12742296,2148,2352,1939,2329,1745188047094154211
12743296,2129,2395,1930,2284,1745188047094154211
12744296,2117,2424,1918,2244,1745188047094154211
12745296,2115,2437,1910,2227,1745188047094154211
12746297,2120,2434,1909,2256,1745188047094154211
12747297,2126,2422,1913,2305,1745188047094154211
12748297,2139,2401,1917,2308,1745188047094154211
12749297,2160,2364,1917,2229,1745188047094154211
12750297,2184,2312,1912,2099,1745188047094154211
12751297,2204,2253,1906,1962,1745188047094154211
12752297,2223,2186,1897,1858,1745188047094154211
12753297,2257,2156,1921,1788,1745188047094154211
12754297,2234,2084,1901,1790,1745188047094154211
12755297,2233,2056,1915,1833,1745188047094154211
12756297,2230,2049,1934,1909,1745188047094154211
12757297,2222,2057,1958,2020,1745188047094154211
12758298,2208,2086,1988,2147,1745188047094154211
12759298,2185,2137,2048,2284,1745188047094154211
12760298,2158,2211,2065,2379,1745188047094154211
12761298,2133,2293,2090,2412,1745188047094154211
12762298,2108,2372,2098,2370,1745188047094154211
12763298,2090,2440,2092,2304,1745188047094154211
12764298,2083,2486,2079,2268,1745188047094154211
12765298,2082,2512,2061,2264,1745188047094154211
12766298,2096,2518,2041,2284,1745188047094154211
12767298,2112,2512,2021,2316,1745188047094154211
12768298,2132,2490,2004,2347,1745188047094154211
12769298,2159,2455,1985,2352,1745188047094154211
12770299,2187,2408,1961,2328,1745188047094154211
12771299,2217,2354,1932,2288,1745188047094154211
12772299,2243,2302,1906,2246,1745188047094154211
12773299,2261,2254,1883,2212,1745188047094154211
12774299,2272,2217,1866,2185,1745188047094154211
12775299,2276,2193,1854,2158,1745188047094154211
12776299,2273,2180,1843,2131,1745188047094154211
12777299,2261,2182,1830,2104,1745188047094154211
12778299,2246,2197,1812,2074,1745188047094154211
12779299,2222,2233,1792,2024,1745188047094154211
12780299,2194,2286,1770,1963,1745188047094154211
12781299,2163,2346,1746,1899,1745188047153647887
12782300,2136,2402,1725,1845,1745188047153647887
12783300,2115,2450,1712,1826,1745188047153647887
12784300,2101,2483,1705,1855,1745188047153647887
12785300,2098,2500,1701,1916,1745188047153647887
12786300,2107,2495,1703,1987,1745188047153647887
12787300,2125,2480,1713,2036,1745188047153647887
12788300,2149,2449,1731,2048,1745188047153647887
12789300,2176,2408,1749,2019,1745188047153647887
12790300,2204,2358,1754,1993,1745188047153647887
12791300,2233,2307,1757,2001,1745188047153647887
12792300,2254,2261,1772,2029,1745188047153647887
12793300,2272,2220,1795,2038,1745188047153647887
12794301,2281,2186,1820,2018,1745188047153647887
12795301,2286,2160,1834,1981,1745188047153647887
12796301,2286,2140,1835,1939,1745188047153647887
12797301,2278,2129,1824,1909,1745188047153647887
12798301,2265,2134,1806,1909,1745188047153647887
12799301,2241,2158,1784,1959,1745188047153647887
12800301,2212,2200,1762,2052,1745188047153647887
12801301,2182,2251,1745,2150,1745188047153647887
12802301,2155,2302,1732,2227,1745188047153647887
12803301,2134,2349,1720,2273,1745188047153647887
12804301,2123,2383,1710,2284,1745188047153647887
12805301,2122,2396,1702,2268,1745188047153647887
12806302,2132,2393,1693,2221,1745188047153647887
12807302,2149,2372,1681,2160,1745188047153647887
12808302,2171,2335,1676,2091,1745188047153647887
12809302,2196,2284,1670,2025,1745188047153647887
12810302,2224,2222,1664,1953,1745188047153647887
12811302,2245,2185,1680,1932,1745188047153647887
12812302,2259,2097,1670,1974,1745188047153647887
12813302,2254,2034,1634,1970,1745188047153647887
12814302,2286,1994,1616,1981,1745188047153647887
12815302,2288,1960,1595,1970,1745188047153647887
12816302,2283,1937,1578,1929,1745188047153647887
12817302,2267,1926,1567,1853,1745188047153647887
12818303,2254,1931,1565,1787,1745188047153647887
12819303,2232,1960,1585,1764,1745188047153647887
12820303,2202,2005,1616,1798,1745188047153647887
12821303,2168,2065,1645,1885,1745188047153647887
12822303,2137,2129,1673,1990,1745188047153647887
12823303,2110,2190,1699,2079,1745188047153647887
12824303,2097,2237,1726,2137,1745188047153647887
12825303,2093,2267,1755,2175,1745188047153647887
12826303,2096,2278,1781,2195,1745188047153647887
12827303,2109,2272,1795,2185,1745188047153647887
12828303,2132,2243,1798,2145,1745188047153647887
12829303,2162,2197,1793,2091,1745188047153647887
12830304,2195,2136,1780,2034,1745188047153647887
12831304,2229,2068,1756,1986,1745188047153647887
12832304,2259,2000,1725,1949,1745188047153647887
12833304,2274,1939,1689,1922,1745188047153647887
12834304,2280,1890,1650,1896,1745188047153647887
12835304,2274,1851,1616,1854,1745188047153647887
12836304,2259,1823,1586,1772,1745188047153647887
12837304,2245,1808,1565,1654,1745188047153647887
12838304,2224,1812,1566,1545,1745188047153647887
12839304,2196,1842,1587,1501,1745188047210831010
12840304,2162,1891,1615,1535,1745188047210831010
12841304,2127,1956,1650,1683,1745188047210831010
12842305,2097,2023,1692,1891,1745188047210831010
12843305,2077,2084,1741,2098,1745188047210831010
12844305,2067,2132,1795,2242,1745188047210831010
12845305,2066,2158,1857,2309,1745188047210831010
12846305,2073,2163,1913,2311,1745188047210831010
12847305,2088,2147,1953,2275,1745188047210831010
12848305,2105,2114,1966,2217,1745188047210831010
12849305,2131,2065,1963,2148,1745188047210831010
12850305,2160,2002,1946,2074,1745188047210831010
12851305,2188,1939,1928,1997,1745188047210831010
12852305,2208,1880,1909,1930,1745188047210831010
12853305,2221,1833,1896,1876,1745188047210831010
12854306,2227,1795,1884,1841,1745188047210831010
12855306,2222,1770,1872,1834,1745188047210831010
12856306,2214,1758,1857,1861,1745188047210831010
12857306,2200,1760,1829,1906,1745188047210831010
12858306,2178,1778,1793,1953,1745188047210831010
12859306,2152,1813,1746,1989,1745188047210831010
12860306,2122,1864,1694,1996,1745188047210831010
12861306,2092,1921,1643,1970,1745188047210831010
12862306,2065,1978,1610,1938,1745188047210831010
12863306,2038,2027,1609,1912,1745188047210831010
12864306,2022,2068,1636,1883,1745188047210831010
12865306,2010,2090,1682,1854,1745188047210831010
12866307,2005,2097,1736,1836,1745188047210831010
12867307,2004,2099,1783,1829,1745188047210831010
12868307,2010,2090,1826,1828,1745188047210831010
12869307,2027,2081,1860,1830,1745188047210831010
12870307,2052,2066,1889,1836,1745188047210831010
12871307,2074,2034,1926,1845,1745188047210831010
12872307,2107,2017,1965,1844,1745188047210831010
12873307,2129,1997,1997,1846,1745188047210831010
12874307,2167,1968,2001,1816,1745188047210831010
12875307,2147,1966,2025,1864,1745188047210831010
12876307,2165,1953,1977,1904,1745188047210831010
12877307,2129,1965,1949,1984,1745188047210831010
12878308,2113,1984,1923,2052,1745188047210831010
12879308,2090,2019,1904,2085,1745188047210831010
12880308,2068,2067,1887,2099,1745188047210831010
12881308,2066,2121,1872,2120,1745188047210831010
12882308,2034,2177,1865,2164,1745188047210831010
12883308,2033,2224,1870,2225,1745188047210831010
12884308,2037,2262,1891,2296,1745188047210831010
12885308,2077,2313,1941,2388,1745188047210831010
12886308,2085,2281,1940,2415,1745188047210831010
12887308,2081,2302,1966,2449,1745188047210831010
12888308,2101,2297,1988,2469,1745188047210831010
12889308,2128,2281,1998,2483,1745188047210831010
12890309,2156,2254,1987,2501,1745188047210831010
12891309,2181,2224,1953,2529,1745188047210831010
12892309,2196,2196,1905,2558,1745188047210831010
12893309,2203,2174,1861,2564,1745188047210831010
12894309,2202,2164,1826,2521,1745188047210831010
12895309,2188,2169,1803,2399,1745188047210831010
12896309,2174,2187,1797,2246,1745188047210831010
12897309,2152,2218,1816,2097,1745188047269144228
12898309,2132,2265,1846,1992,1745188047269144228
12899309,2094,2329,1872,1986,1745188047269144228
12900310,2067,2404,1886,2093,1745188047269144228
12901309,2040,2482,1893,2251,1745188047269144228
12902311,2033,2550,1902,2419,1745188047269144228
12903310,2036,2596,1916,2565,1745188047269144228
12904310,2054,2636,1922,2665,1745188047269144228
12905310,2077,2660,1924,2686,1745188047269144228
12906310,2108,2667,1937,2626,1745188047269144228
12907310,2144,2654,1972,2518,1745188047269144228
12908310,2181,2622,2021,2390,1745188047269144228
12909310,2221,2565,2068,2277,1745188047269144228
12910310,2260,2503,2096,2181,1745188047269144228
12911310,2294,2426,2100,2106,1745188047269144228
12912310,2326,2352,2085,2041,1745188047269144228
12913310,2349,2284,2052,2000,1745188047269144228
12914311,2366,2219,2010,1995,1745188047269144228
12915311,2380,2166,1972,2012,1745188047269144228
12916311,2398,2128,1940,2005,1745188047269144228
12917311,2393,2106,1920,1969,1745188047269144228
12918311,2387,2102,1912,1945,1745188047269144228
12919311,2374,2121,1891,1986,1745188047269144228
12920311,2356,2154,1846,2120,1745188047269144228
12921311,2338,2193,1789,2308,1745188047269144228
12922311,2331,2228,1726,2497,1745188047269144228
12923311,2332,2259,1660,2628,1745188047269144228
12924311,2341,2275,1603,2680,1745188047269144228
12925312,2360,2277,1578,2609,1745188047269144228
12926312,2386,2261,1613,2441,1745188047269144228
12927312,2415,2232,1708,2250,1745188047269144228
12928312,2466,2204,1822,2059,1745188047269144228
12929312,2456,2127,1933,1969,1745188047269144228
12930312,2466,2075,2014,1961,1745188047269144228
12931312,2464,2030,2076,2004,1745188047269144228
12932312,2452,1994,2117,2048,1745188047269144228
12933312,2429,1962,2128,2064,1745188047269144228
12934312,2405,1937,2129,2062,1745188047269144228
12935312,2376,1920,2105,2044,1745188047269144228
12936312,2347,1913,2075,2018,1745188047269144228
12937312,2322,1920,2056,1987,1745188047269144228
12938313,2298,1936,2035,1960,1745188047269144228
12939313,2273,1963,2013,1926,1745188047269144228
12940313,2245,1992,1973,1893,1745188047269144228
12941313,2219,2014,1924,1868,1745188047269144228
12942313,2195,2033,1877,1846,1745188047269144228
12943313,2171,2048,1845,1834,1745188047269144228
12944313,2156,2049,1837,1843,1745188047269144228
12945313,2153,2033,1841,1890,1745188047269144228
12946313,2160,2008,1856,1977,1745188047269144228
12947313,2172,1974,1878,2082,1745188047269144228
12948313,2190,1933,1901,2156,1745188047269144228
12949313,2212,1892,1924,2171,1745188047269144228
12950314,2233,1858,1959,2131,1745188047269144228
12951314,2248,1826,2027,2067,1745188047269144228
12952314,2253,1787,2122,1994,1745188047269144228
12953314,2249,1738,2213,1930,1745188047269144228
12954314,2229,1684,2269,1881,1745188047269144228
12955314,2198,1619,2288,1837,1745188047337930422
12956314,2158,1535,2270,1804,1745188047337930422
12957314,2117,1452,2224,1801,1745188047337930422
12958314,2080,1372,2169,1850,1745188047337930422
12959314,2044,1318,2112,1934,1745188047337930422
12960314,2014,1325,2059,2012,1745188047337930422
12961314,1995,1437,2022,2016,1745188047337930422
12962315,1983,1606,2016,1936,1745188047337930422
12963315,1973,1785,2035,1830,1745188047337930422
12964315,1963,1925,2084,1749,1745188047337930422
12965315,1950,1987,2160,1710,1745188047337930422
12966315,1933,1957,2246,1736,1745188047337930422
12967315,1910,1859,2321,1804,1745188047337930422
12968315,1885,1721,2365,1868,1745188047337930422
12969315,1868,1570,2369,1885,1745188047337930422
12970315,1858,1440,2328,1862,1745188047337930422
12971315,1858,1320,2274,1819,1745188047337930422
12972315,1857,1237,2261,1771,1745188047337930422
12973315,1861,1194,2252,1737,1745188047337930422
12974316,1833,1181,2296,1722,1745188047337930422
12975316,1813,1177,2333,1728,1745188047337930422
12976316,1793,1188,2350,1745,1745188047337930422
12977316,1769,1204,2335,1760,1745188047337930422
12978316,1749,1214,2320,1770,1745188047337930422
12979316,1717,1204,2300,1772,1745188047337930422
12980316,1689,1186,2278,1758,1745188047337930422
12981316,1661,1161,2260,1722,1745188047337930422
12982316,1638,1169,2248,1677,1745188047337930422
12983317,1621,1209,2250,1646,1745188047337930422
12984316,1606,1278,2258,1645,1745188047337930422
12985316,1596,1329,2266,1668,1745188047337930422
12986317,1588,1369,2274,1719,1745188047337930422
12987317,1585,1379,2293,1792,1745188047337930422
12988317,1586,1363,2322,1828,1745188047337930422
12989317,1593,1330,2371,1787,1745188047337930422
12990317,1595,1249,2348,1670,1745188047337930422
12991317,1621,1209,2342,1529,1745188047337930422
12992317,1642,1174,2319,1325,1745188047337930422
12993317,1665,1118,2291,1165,1745188047337930422
12994317,1678,1050,2265,1091,1745188047337930422
12995317,1679,1000,2261,1133,1745188047337930422
12996317,1668,1009,2292,1286,1745188047337930422
12997317,1638,1086,2356,1515,1745188047337930422
12998318,1603,1185,2433,1759,1745188047337930422
12999318,1563,1277,2502,1970,1745188047337930422
13000318,1532,1364,2550,2096,1745188047337930422
13001318,1497,1444,2566,2130,1745188047337930422
13002318,1469,1512,2571,2077,1745188047337930422
13003318,1448,1548,2560,1965,1745188047337930422
13004318,1435,1574,2550,1857,1745188047337930422
13005318,1430,1578,2526,1785,1745188047337930422
13006318,1433,1565,2502,1760,1745188047337930422
13007318,1438,1541,2480,1788,1745188047337930422
13008318,1450,1519,2465,1873,1745188047337930422
13009318,1461,1483,2452,1982,1745188047337930422
13010319,1479,1445,2429,2063,1745188047337930422
13011319,1498,1406,2396,2072,1745188047337930422
13012319,1516,1372,2361,2016,1745188047337930422
13013319,1529,1349,2322,1941,1745188047386315657
13014319,1535,1348,2286,1891,1745188047386315657
13015319,1535,1373,2253,1871,1745188047386315657
13016319,1535,1414,2232,1862,1745188047386315657
13017319,1533,1467,2217,1866,1745188047386315657
13018319,1528,1532,2216,1899,1745188047386315657
13019319,1516,1568,2235,1951,1745188047386315657
13020319,1501,1583,2280,1980,1745188047386315657
13021319,1490,1598,2354,1961,1745188047386315657
13022320,1485,1616,2445,1890,1745188047386315657
13023320,1482,1617,2528,1816,1745188047386315657
13024320,1484,1590,2573,1804,1745188047386315657
13025320,1494,1568,2603,1872,1745188047386315657
13026320,1513,1573,2620,1937,1745188047386315657
13027320,1535,1601,2626,1941,1745188047386315657
13028320,1551,1632,2613,1865,1745188047386315657
13029320,1564,1640,2574,1742,1745188047386315657
13030320,1572,1622,2521,1628,1745188047386315657
13031320,1580,1590,2449,1569,1745188047386315657
13032320,1589,1553,2378,1565,1745188047386315657
13033321,1596,1523,2322,1614,1745188047386315657
13034321,1604,1485,2302,1717,1745188047386315657
13035321,1594,1443,2320,1838,1745188047386315657
13036321,1581,1392,2358,1942,1745188047386315657
13037321,1557,1375,2404,2030,1745188047386315657
13038321,1531,1408,2451,2125,1745188047386315657
13039321,1493,1515,2493,2204,1745188047386315657
13040321,1454,1665,2528,2256,1745188047386315657
13041321,1420,1824,2550,2286,1745188047386315657
13042323,1387,1962,2559,2300,1745188047386315657
13043321,1362,2070,2558,2291,1745188047386315657
13044323,1342,2147,2545,2250,1745188047386315657
13045321,1329,2164,2544,2193,1745188047386315657
13046322,1324,2115,2522,2120,1745188047386315657
13047322,1329,2044,2499,2008,1745188047386315657
13048322,1340,2014,2460,1865,1745188047386315657
13049322,1363,2024,2410,1722,1745188047386315657
13050322,1396,2021,2361,1600,1745188047386315657
13051322,1436,1980,2316,1535,1745188047386315657
13052322,1476,1933,2296,1535,1745188047386315657
13053322,1519,1904,2298,1568,1745188047386315657
13054322,1565,1909,2313,1654,1745188047386315657
13055322,1602,1910,2333,1758,1745188047386315657
13056322,1612,1896,2370,1942,1745188047386315657
13057322,1636,1910,2392,2168,1745188047386315657
13058323,1653,1937,2404,2368,1745188047386315657
13059323,1668,1969,2408,2465,1745188047386315657
13060323,1680,1977,2394,2440,1745188047386315657
13061323,1697,2003,2385,2306,1745188047386315657
13062323,1720,2106,2372,2100,1745188047386315657
13063323,1749,2214,2357,1907,1745188047386315657
13064323,1776,2281,2340,1814,1745188047386315657
13065323,1804,2314,2321,1853,1745188047386315657
13066323,1829,2329,2308,1995,1745188047386315657
13067323,1858,2328,2299,2162,1745188047386315657
13068323,1885,2308,2274,2300,1745188047386315657
13069323,1916,2277,2245,2372,1745188047386315657
13070324,1953,2245,2217,2371,1745188047386315657
13071324,1989,2210,2182,2317,1745188047451288032
13072324,2017,2170,2155,2260,1745188047451288032
13073324,2035,2134,2134,2213,1745188047451288032
13074324,2050,2108,2120,2186,1745188047451288032
13075324,2056,2093,2113,2172,1745188047451288032
13076324,2058,2089,2117,2167,1745188047451288032
13077324,2057,2091,2131,2163,1745188047451288032
13078324,2050,2104,2149,2150,1745188047451288032
13079324,2037,2129,2161,2134,1745188047451288032
13080324,2024,2163,2167,2124,1745188047451288032
13081324,2011,2197,2164,2116,1745188047451288032
13082325,2002,2227,2152,2089,1745188047451288032
13083325,2000,2248,2122,2048,1745188047451288032
13084325,2002,2258,2079,2025,1745188047451288032
13085325,2011,2256,2026,2053,1745188047451288032
13086325,2022,2243,1974,2109,1745188047451288032
13087325,2041,2218,1938,2160,1745188047451288032
13088325,2062,2184,1921,2154,1745188047451288032
13089325,2083,2141,1923,2070,1745188047451288032
13090325,2099,2092,1940,1951,1745188047451288032
13091325,2110,2044,1981,1873,1745188047451288032
13092325,2113,2008,2049,1878,1745188047451288032
13093325,2112,1984,2116,1960,1745188047451288032
13094326,2101,1973,2168,2084,1745188047451288032
13095326,2092,1971,2202,2219,1745188047451288032
13096326,2078,1971,2224,2347,1745188047451288032
13097326,2062,1978,2234,2440,1745188047451288032
13098326,2042,1994,2226,2482,1745188047451288032
13099326,2019,2019,2207,2498,1745188047451288032
13100326,1996,2052,2181,2504,1745188047451288032
13101326,1974,2081,2158,2510,1745188047451288032
13102326,1957,2098,2135,2512,1745188047451288032
13103326,1944,2118,2132,2503,1745188047451288032
13104326,1933,2080,2082,2392,1745188047451288032
13105326,1944,2059,2058,2275,1745188047451288032
13106327,1953,2030,2033,2190,1745188047451288032
13107327,1964,1998,2015,2179,1745188047451288032
13108327,1979,1957,2015,2230,1745188047451288032
13109327,1994,1904,2037,2288,1745188047451288032
13110327,2013,1844,2074,2316,1745188047451288032
13111327,2026,1780,2112,2306,1745188047451288032
13112327,2037,1728,2141,2282,1745188047451288032
13113327,2041,1689,2153,2244,1745188047451288032
13114327,2042,1664,2151,2202,1745188047451288032
13115327,2038,1645,2137,2138,1745188047451288032
13116327,2029,1632,2116,2031,1745188047451288032
13117327,2016,1641,2100,1875,1745188047451288032
13118328,2005,1677,2089,1713,1745188047451288032
13119328,1989,1723,2082,1596,1745188047451288032
13120328,1971,1780,2067,1569,1745188047451288032
13121328,1956,1867,2044,1667,1745188047451288032
13122328,1947,1963,2022,1835,1745188047451288032
13123328,1946,2038,2010,1996,1745188047451288032
13124328,1953,2093,2004,2097,1745188047451288032
13125328,1961,2123,2011,2126,1745188047451288032
13126328,1973,2137,2027,2121,1745188047451288032
13127328,1989,2139,2049,2139,1745188047451288032
13128328,2010,2128,2072,2203,1745188047451288032
13129328,2035,2104,2097,2285,1745188047500593155
13130329,2064,2075,2120,2355,1745188047500593155
13131329,2090,2041,2125,2395,1745188047500593155
13132329,2108,2011,2103,2405,1745188047500593155
13133329,2120,1989,2063,2398,1745188047500593155
13134329,2120,1980,2016,2394,1745188047500593155
13135329,2120,1984,1981,2392,1745188047500593155
13136329,2112,1993,1963,2388,1745188047500593155
13137329,2100,1995,1963,2374,1745188047500593155
13138329,2085,1973,1978,2365,1745188047500593155
13139329,2066,1940,1993,2370,1745188047500593155
13140329,2044,1937,2000,2378,1745188047500593155
13141329,2030,2005,1993,2378,1745188047500593155
13142330,2024,2116,1981,2355,1745188047500593155
13143330,2016,2209,1968,2296,1745188047500593155
13144330,2011,2267,1956,2203,1745188047500593155
13145330,2016,2288,1944,2112,1745188047500593155
13146330,2027,2280,1930,2043,1745188047500593155
13147330,2042,2250,1914,2008,1745188047500593155
13148330,2058,2209,1897,1997,1745188047500593155
13149330,2070,2178,1882,1978,1745188047500593155
13150330,2084,2158,1870,1919,1745188047500593155
13151330,2102,2141,1860,1818,1745188047500593155
13152330,2115,2125,1852,1693,1745188047500593155
13153330,2125,2110,1846,1582,1745188047500593155
13154331,2130,2099,1845,1539,1745188047500593155
13155331,2133,2085,1854,1584,1745188047500593155
13156331,2130,2085,1881,1667,1745188047500593155
13157331,2122,2121,1924,1739,1745188047500593155
13158331,2109,2172,1970,1802,1745188047500593155
13159331,2094,2224,2001,1876,1745188047500593155
13160331,2071,2274,2011,1984,1745188047500593155
13161331,2054,2312,2024,2124,1745188047500593155
13162331,2035,2341,2030,2235,1745188047500593155
13163331,2033,2386,2036,2308,1745188047500593155
13164332,2034,2419,2043,2360,1745188047500593155
13165332,2043,2414,2057,2402,1745188047500593155
13166332,2052,2381,2063,2428,1745188047500593155
13167332,2063,2342,2063,2436,1745188047500593155
13168332,2075,2308,2074,2444,1745188047500593155
13169333,2081,2265,2031,2373,1745188047500593155
13170332,2115,2234,2016,2313,1745188047500593155
13171332,2139,2194,2004,2243,1745188047500593155
13172332,2155,2155,1998,2160,1745188047500593155
13173332,2164,2114,1993,2066,1745188047500593155
13174332,2167,2080,1989,1987,1745188047500593155
13175332,2166,2069,1977,1901,1745188047500593155
13176332,2161,2114,1960,1845,1745188047500593155
13177332,2152,2171,1947,1850,1745188047500593155
13178333,2141,2225,1941,1928,1745188047500593155
13179333,2128,2283,1941,2024,1745188047500593155
13180333,2112,2344,1941,2068,1745188047500593155
13181333,2098,2392,1939,2052,1745188047500593155
13182333,2090,2415,1933,2022,1745188047500593155
13183333,2083,2413,1923,2026,1745188047500593155
13184333,2084,2417,1906,2088,1745188047500593155
13185333,2092,2451,1907,2173,1745188047500593155
13186333,2102,2486,1907,2252,1745188047500593155
13187333,2117,2509,1907,2293,1745188047564245230
13188333,2133,2512,1908,2300,1745188047564245230
13189333,2146,2489,1908,2276,1745188047564245230
13190334,2160,2449,1913,2254,1745188047564245230
13191334,2172,2393,1934,2248,1745188047564245230
13192334,2180,2320,1949,2225,1745188047564245230
13193334,2174,2238,1967,2174,1745188047564245230
13194334,2163,2195,1979,2125,1745188047564245230
13195334,2157,2209,1978,2085,1745188047564245230
13196334,2160,2288,1964,2069,1745188047564245230
13197334,2157,2404,1954,2105,1745188047564245230
13198334,2150,2497,1954,2193,1745188047564245230
13199334,2133,2550,1969,2308,1745188047564245230
13200334,2114,2574,1989,2420,1745188047564245230
13201334,2101,2600,2008,2497,1745188047564245230
13202335,2097,2624,2016,2520,1745188047564245230
13203335,2100,2641,2020,2490,1745188047564245230
13204335,2109,2645,2016,2434,1745188047564245230
13205335,2115,2638,2000,2376,1745188047564245230
13206335,2120,2614,1981,2337,1745188047564245230
13207335,2129,2572,1954,2324,1745188047564245230
13208335,2135,2530,1923,2309,1745188047564245230
13209335,2145,2474,1895,2271,1745188047564245230
13210335,2155,2423,1878,2216,1745188047564245230
13211335,2158,2386,1876,2161,1745188047564245230
13212335,2153,2361,1886,2136,1745188047564245230
13213335,2156,2338,1905,2136,1745188047564245230
13214336,2164,2305,1924,2133,1745188047564245230
13215336,2179,2259,1936,2128,1745188047564245230
13216336,2203,2230,1939,2113,1745188047564245230
13217336,2233,2219,1941,2076,1745188047564245230
13218336,2266,2217,1946,2049,1745188047564245230
13219336,2300,2226,1952,2064,1745188047564245230
13220338,2336,2243,1980,2156,1745188047564245230
13221336,2358,2253,1962,2235,1745188047564245230
13222336,2413,2272,1978,2325,1745188047564245230
13223336,2452,2274,1993,2377,1745188047564245230
13224336,2411,2270,2009,2384,1745188047564245230
13225336,2387,2261,2017,2354,1745188047564245230
13226337,2361,2259,2012,2298,1745188047564245230
13227337,2332,2257,1995,2245,1745188047564245230
13228337,2298,2251,1969,2213,1745188047564245230
13229337,2261,2228,1941,2208,1745188047564245230
13230337,2229,2196,1916,2216,1745188047564245230
13231337,2200,2165,1905,2218,1745188047564245230
13232337,2170,2139,1910,2193,1745188047564245230
13233337,2143,2109,1931,2148,1745188047564245230
13234337,2116,2078,1953,2092,1745188047564245230
13235337,2086,2060,1970,2002,1745188047564245230
13236337,2059,2067,1985,1907,1745188047564245230
13237339,2037,2100,1996,1848,1745188047564245230
13238339,2037,2142,2001,1882,1745188047564245230
13239338,2060,2189,2005,2013,1745188047564245230
13240338,2109,2231,2021,2172,1745188047564245230
13241338,2156,2275,2026,2301,1745188047564245230
13242338,2195,2318,2049,2354,1745188047564245230
13243338,2227,2350,2070,2310,1745188047564245230
13244338,2253,2361,2090,2196,1745188047564245230
13245339,2279,2344,2104,2064,1745188047624401347
13246338,2298,2310,2109,1941,1745188047624401347
13247338,2315,2266,2107,1856,1745188047624401347
13248338,2325,2229,2101,1816,1745188047624401347
13249338,2331,2190,2084,1809,1745188047624401347
13250339,2333,2138,2057,1803,1745188047624401347
13251339,2327,2073,2024,1788,1745188047624401347
13252339,2317,1998,1997,1738,1745188047624401347
13253339,2300,1936,1974,1659,1745188047624401347
13254339,2278,1924,1958,1586,1745188047624401347
13255339,2249,1947,1954,1574,1745188047624401347
13256339,2217,1965,1958,1664,1745188047624401347
13257339,2180,1969,1981,1840,1745188047624401347
13258339,2142,1980,2011,2033,1745188047624401347
13259339,2106,2053,2029,2184,1745188047624401347
13260339,2069,2176,2027,2266,1745188047624401347
13261339,2028,2281,2008,2282,1745188047624401347
13262340,1985,2340,1976,2250,1745188047624401347
13263340,1941,2362,1939,2192,1745188047624401347
13264340,1903,2360,1909,2140,1745188047624401347
13265340,1876,2344,1891,2130,1745188047624401347
13266340,1862,2330,1888,2156,1745188047624401347
13267340,1854,2313,1893,2176,1745188047624401347
13268340,1861,2280,1907,2146,1745188047624401347
13269340,1869,2236,1924,2061,1745188047624401347
13270340,1874,2200,1938,1952,1745188047624401347
13271340,1874,2160,1934,1882,1745188047624401347
13272340,1868,2132,1912,1874,1745188047624401347
13273340,1859,2118,1889,1939,1745188047624401347
13274341,1854,2105,1876,2049,1745188047624401347
13275341,1857,2113,1872,2156,1745188047624401347
13276341,1858,2114,1867,2242,1745188047624401347
13277341,1859,2120,1871,2294,1745188047624401347
13278341,1865,2140,1893,2307,1745188047624401347
13279341,1874,2163,1934,2285,1745188047624401347
13280341,1876,2192,1972,2232,1745188047624401347
13281341,1899,2230,1984,2163,1745188047624401347
13282341,1876,2203,2031,2113,1745188047624401347
13283341,1872,2192,2043,2054,1745188047624401347
13284341,1854,2222,2037,1996,1745188047624401347
13285341,1831,2274,2021,1961,1745188047624401347
13286342,1801,2284,1998,1950,1745188047624401347
13287342,1775,2261,1979,1956,1745188047624401347
13288342,1758,2235,1965,1965,1745188047624401347
13289342,1766,2205,1960,1969,1745188047624401347
13290342,1796,2176,1957,1984,1745188047624401347
13291342,1843,2147,1955,2002,1745188047624401347
13292342,1902,2125,1952,2000,1745188047624401347
13293342,1974,2112,1944,1978,1745188047624401347
13294342,2054,2125,1937,1924,1745188047624401347
13295342,2149,2130,1955,1822,1745188047624401347
13296342,2182,2096,1930,1726,1745188047624401347
13297342,2234,2085,1921,1650,1745188047624401347
13298343,2274,2128,1909,1638,1745188047624401347
13299343,2288,2208,1898,1694,1745188047624401347
13300343,2278,2274,1891,1777,1745188047624401347
13301343,2251,2309,1893,1873,1745188047624401347
13302343,2218,2331,1907,1989,1745188047624401347
13303343,2188,2347,1928,2120,1745188047677733203
13304343,2165,2353,1953,2249,1745188047677733203
13305343,2149,2356,1979,2354,1745188047677733203
13306343,2145,2348,1994,2405,1745188047677733203
13307343,2142,2329,1995,2400,1745188047677733203
13308343,2148,2298,1992,2366,1745188047677733203
13309343,2162,2257,1992,2340,1745188047677733203
13310344,2178,2210,1995,2332,1745188047677733203
13311344,2190,2166,2001,2326,1745188047677733203
13312344,2201,2132,2011,2305,1745188047677733203
13313344,2209,2117,2021,2252,1745188047677733203
13314344,2213,2116,2020,2150,1745188047677733203
13315344,2217,2120,2004,2005,1745188047677733203
13316344,2217,2118,1978,1867,1745188047677733203
13317344,2213,2124,1948,1777,1745188047677733203
13318344,2208,2131,1921,1777,1745188047677733203
13319344,2200,2163,1904,1882,1745188047677733203
13320344,2193,2197,1908,2053,1745188047677733203
13321344,2188,2228,1932,2212,1745188047677733203
13322345,2188,2245,1962,2313,1745188047677733203
13323345,2193,2266,1994,2356,1745188047677733203
13324345,2203,2274,2017,2374,1745188047677733203
13325345,2217,2285,2030,2381,1745188047677733203
13326345,2238,2321,2032,2380,1745188047677733203
13327345,2259,2352,2024,2364,1745188047677733203
13328345,2281,2339,2003,2325,1745188047677733203
13329345,2300,2278,1968,2248,1745188047677733203
13330345,2320,2203,1929,2126,1745188047677733203
13331345,2338,2134,1886,1998,1745188047677733203
13332345,2352,2081,1850,1918,1745188047677733203
13333345,2362,2052,1836,1906,1745188047677733203
13334346,2368,2049,1856,1961,1745188047677733203
13335346,2373,2058,1902,2008,1745188047677733203
13336346,2376,2052,1959,1984,1745188047677733203
13337346,2373,2030,2014,1908,1745188047677733203
13338346,2367,2006,2061,1843,1745188047677733203
13339346,2361,2008,2086,1831,1745188047677733203
13340346,2353,2069,2098,1893,1745188047677733203
13341346,2376,2136,2094,1993,1745188047677733203
13342346,2347,2226,2098,2077,1745188047677733203
13343346,2349,2275,2092,2115,1745188047677733203
13344346,2355,2293,2089,2125,1745188047677733203
13345346,2365,2285,2093,2121,1745188047677733203
13346347,2374,2253,2105,2110,1745188047677733203
13347347,2385,2197,2114,2091,1745188047677733203
13348347,2408,2142,2110,2062,1745188047677733203
13349347,2425,2099,2104,2019,1745188047677733203
13350347,2444,2066,2092,1975,1745188047677733203
13351347,2460,2036,2079,1948,1745188047677733203
13352347,2473,2010,2064,1958,1745188047677733203
13353347,2477,1983,2052,1998,1745188047677733203
13354347,2477,1957,2045,2038,1745188047677733203
13355347,2470,1944,2041,2065,1745188047677733203
13356347,2459,1947,2035,2071,1745188047677733203
13357347,2445,1962,2032,2057,1745188047677733203
13358348,2432,1989,2028,2049,1745188047677733203
13359348,2413,2020,2021,2056,1745188047677733203
13360348,2395,2054,2011,2080,1745188047677733203
13361348,2373,2088,1995,2101,1745188047743086044
13362348,2362,2120,1979,2103,1745188047743086044
13363348,2350,2144,1971,2089,1745188047743086044
13364348,2346,2160,1965,2069,1745188047743086044
13365348,2350,2162,1964,2075,1745188047743086044
13366348,2356,2155,1969,2107,1745188047743086044
13367348,2362,2144,1974,2124,1745188047743086044
13368348,2372,2130,1982,2097,1745188047743086044
13369348,2381,2097,1987,2025,1745188047743086044
13370349,2391,2038,1986,1936,1745188047743086044
13371349,2406,1958,1981,1853,1745188047743086044
13372351,2417,1868,1984,1793,1745188047743086044
13373349,2442,1796,2006,1765,1745188047743086044
13374349,2438,1773,2049,1770,1745188047743086044
13375349,2451,1814,2089,1803,1745188047743086044
13376349,2458,1884,2130,1866,1745188047743086044
13377349,2462,1943,2158,1942,1745188047743086044
13378349,2462,1986,2170,2011,1745188047743086044
13379349,2460,2028,2170,2062,1745188047743086044
13380349,2456,2078,2162,2102,1745188047743086044
13381349,2447,2107,2150,2148,1745188047743086044
13382350,2440,2104,2140,2200,1745188047743086044
13383350,2433,2080,2133,2251,1745188047743086044
13384350,2440,2095,2130,2292,1745188047743086044
13385350,2434,2138,2123,2301,1745188047743086044
13386350,2441,2168,2116,2261,1745188047743086044
13387350,2446,2170,2107,2185,1745188047743086044
13388350,2450,2144,2094,2085,1745188047743086044
13389350,2452,2096,2078,1985,1745188047743086044
13390350,2456,2040,2056,1909,1745188047743086044
13391350,2457,1994,2028,1862,1745188047743086044
13392350,2454,1963,2000,1829,1745188047743086044
13393350,2445,1925,1982,1802,1745188047743086044
13394351,2428,1870,1972,1774,1745188047743086044
13395351,2403,1803,2000,1723,1745188047743086044
13396351,2371,1742,1989,1702,1745188047743086044
13397352,2349,1713,2018,1670,1745188047743086044
13398351,2320,1737,2050,1656,1745188047743086044
13399351,2289,1790,2092,1683,1745188047743086044
13400351,2261,1842,2126,1731,1745188047743086044
13401351,2235,1878,2145,1785,1745188047743086044
13402351,2223,1901,2152,1813,1745188047743086044
13403351,2213,1908,2146,1817,1745188047743086044
13404351,2208,1899,2132,1809,1745188047743086044
13405351,2206,1878,2119,1809,1745188047743086044
13406352,2206,1837,2107,1779,1745188047743086044
13407352,2205,1788,2096,1699,1745188047743086044
13408352,2200,1747,2086,1595,1745188047743086044
13409352,2190,1704,2078,1525,1745188047743086044
13410352,2179,1662,2074,1525,1745188047743086044
13411352,2166,1628,2085,1602,1745188047743086044
13412352,2149,1611,2113,1720,1745188047743086044
13413352,2129,1607,2139,1830,1745188047743086044
13414352,2100,1613,2157,1929,1745188047743086044
13415352,2074,1632,2166,2025,1745188047743086044
13416352,2040,1664,2165,2118,1745188047743086044
13417352,2011,1715,2161,2190,1745188047743086044
13418353,1981,1784,2162,2224,1745188047743086044
13419353,1955,1860,2164,2209,1745188047799381311
13420353,1929,1952,2158,2164,1745188047799381311
13421353,1902,2033,2147,2110,1745188047799381311
13422353,1875,2094,2126,2072,1745188047799381311
13423353,1857,2128,2096,2058,1745188047799381311
13424353,1843,2137,2062,2070,1745188047799381311
13425353,1844,2130,2031,2120,1745188047799381311
13426353,1853,2124,2013,2188,1745188047799381311
13427353,1870,2127,2005,2236,1745188047799381311
13428353,1891,2132,2005,2258,1745188047799381311
13429353,1913,2120,2011,2245,1745188047799381311
13430354,1934,2090,2021,2187,1745188047799381311
13431354,1954,2043,2034,2084,1745188047799381311
13432354,1967,2000,2049,1965,1745188047799381311
13433354,1971,1966,2062,1861,1745188047799381311
13434354,1969,1949,2075,1797,1745188047799381311
13435354,1960,1947,2089,1773,1745188047799381311
13436354,1949,1958,2104,1769,1745188047799381311
13437354,1937,1984,2118,1755,1745188047799381311
13438354,1925,2015,2133,1731,1745188047799381311
13439354,1909,2053,2142,1721,1745188047799381311
13440354,1892,2093,2147,1755,1745188047799381311
13441354,1876,2121,2148,1842,1745188047799381311
13442355,1864,2127,2144,1960,1745188047799381311
13443355,1857,2116,2138,2072,1745188047799381311
13444355,1858,2129,2137,2153,1745188047799381311
13445355,1873,2181,2140,2198,1745188047799381311
13446355,1889,2216,2140,2219,1745188047799381311
13447355,1906,2205,2130,2233,1745188047799381311
13448355,1924,2172,2107,2228,1745188047799381311
13449355,1945,2131,2081,2188,1745188047799381311
13450355,1965,2112,2058,2117,1745188047799381311
13451355,1986,2115,2040,2035,1745188047799381311
13452355,1997,2104,2029,1972,1745188047799381311
13453355,2000,2072,2028,1925,1745188047799381311
13454356,1991,2032,2030,1889,1745188047799381311
13455356,1994,1990,2040,1829,1745188047799381311
13456356,1982,1950,2040,1738,1745188047799381311
13457356,1968,1914,2031,1645,1745188047799381311
13458356,1952,1874,2025,1593,1745188047799381311
13459356,1929,1840,2019,1608,1745188047799381311
13460356,1908,1832,2018,1715,1745188047799381311
13461356,1912,1900,2029,1857,1745188047799381311
13462356,1882,2038,2049,2057,1745188047799381311
13463356,1877,2161,2062,2250,1745188047799381311
13464356,1876,2226,2069,2406,1745188047799381311
13465356,1875,2240,2069,2520,1745188047799381311
13466357,1897,2221,2067,2564,1745188047799381311
13467357,1884,2197,2068,2565,1745188047799381311
13468357,1897,2182,2069,2528,1745188047799381311
13469357,1913,2161,2067,2426,1745188047799381311
13470357,1929,2128,2064,2293,1745188047799381311
13471357,1944,2087,2065,2171,1745188047799381311
13472357,1955,2056,2073,2085,1745188047799381311
13473357,1963,2038,2085,2053,1745188047799381311
13474357,1971,2041,2096,2067,1745188047799381311
13475357,1972,2048,2105,2104,1745188047799381311
13476357,1966,2053,2112,2120,1745188047799381311
13477357,1954,2060,2109,2095,1745188047856788234
13478358,1937,2078,2099,2036,1745188047856788234
13479358,1918,2102,2075,1985,1745188047856788234
13480358,1900,2137,2048,1942,1745188047856788234
13481358,1880,2172,2021,1957,1745188047856788234
13482358,1865,2202,2005,2021,1745188047856788234
13483358,1857,2224,1997,2138,1745188047856788234
13484358,1856,2235,2001,2271,1745188047856788234
13485358,1863,2236,2018,2361,1745188047856788234
13486358,1876,2232,2035,2376,1745188047856788234
13487358,1891,2226,2051,2331,1745188047856788234
13488358,1909,2207,2062,2258,1745188047856788234
13489358,1925,2171,2077,2184,1745188047856788234
13490359,1945,2125,2094,2124,1745188047856788234
13491359,1962,2076,2105,2078,1745188047856788234
13492359,1974,2029,2107,2040,1745188047856788234
13493359,1981,2003,2099,2016,1745188047856788234
13494360,1985,1995,2085,2004,1745188047856788234
13495359,1980,2000,2069,1994,1745188047856788234
13496359,1969,2012,2056,1973,1745188047856788234
13497359,1955,2016,2035,1946,1745188047856788234
13498359,1936,2012,2018,1915,1745188047856788234
13499359,1915,2017,2006,1891,1745188047856788234
13500359,1889,2035,2005,1878,1745188047856788234
13501359,1868,2062,2017,1869,1745188047856788234
13502360,1848,2089,2028,1866,1745188047856788234
13503360,1837,2112,2027,1877,1745188047856788234
13504360,1832,2126,2017,1891,1745188047856788234
13505360,1837,2129,2006,1889,1745188047856788234
13506360,1845,2118,1996,1886,1745188047856788234
13507360,1859,2094,1981,1924,1745188047856788234
13508360,1876,2056,1972,2030,1745188047856788234
13509360,1896,1999,1978,2173,1745188047856788234
13510360,1916,1941,2000,2285,1745188047856788234
13511360,1935,1893,2035,2316,1745188047856788234
13512360,1948,1852,2081,2276,1745188047856788234
13513360,1954,1809,2122,2216,1745188047856788234
13514361,1954,1784,2149,2164,1745188047856788234
13515362,1951,1810,2164,2116,1745188047856788234
13516361,1944,1877,2170,2068,1745188047856788234
13517361,1925,1936,2168,2017,1745188047856788234
13518361,1934,1997,2150,1990,1745188047856788234
13519362,1888,2009,2149,1997,1745188047856788234
13520361,1868,2044,2138,2034,1745188047856788234
13521361,1850,2081,2129,2059,1745188047856788234
13522361,1836,2114,2118,2044,1745188047856788234
13523361,1825,2139,2107,2017,1745188047856788234
13524361,1827,2157,2088,2008,1745188047856788234
13525361,1836,2152,2063,2065,1745188047856788234
13526362,1851,2128,2041,2171,1745188047856788234
13527362,1874,2098,2021,2273,1745188047856788234
13528362,1899,2071,2005,2344,1745188047856788234
13529362,1921,2048,1990,2379,1745188047856788234
13530362,1942,2029,1980,2376,1745188047856788234
13531362,1977,2014,1982,2334,1745188047856788234
13532362,1963,2000,1994,2270,1745188047856788234
13533362,1972,1982,2021,2194,1745188047856788234
13534362,1969,1969,2060,2123,1745188047856788234
13535362,1966,1968,2101,2060,1745188047917153777
13536362,1958,1973,2134,1997,1745188047917153777
13537362,1948,1990,2153,1956,1745188047917153777
13538363,1938,2010,2156,1960,1745188047917153777
13539363,1926,2037,2148,2003,1745188047917153777
13540363,1913,2079,2136,2074,1745188047917153777
13541363,1899,2124,2118,2152,1745188047917153777
13542363,1889,2166,2100,2204,1745188047917153777
13543363,1881,2200,2077,2211,1745188047917153777
13544363,1881,2218,2052,2184,1745188047917153777
13545363,1886,2226,2019,2120,1745188047917153777
13546363,1898,2225,1979,2008,1745188047917153777
13547363,1917,2212,1933,1862,1745188047917153777
13548363,1934,2194,1891,1715,1745188047917153777
13549363,1952,2161,1864,1597,1745188047917153777
13550364,1969,2107,1870,1562,1745188047917153777
13551364,1985,2051,1909,1622,1745188047917153777
13552364,2001,2003,1965,1744,1745188047917153777
13553364,2008,1967,2024,1898,1745188047917153777
13554364,2017,1947,2076,2042,1745188047917153777
13555364,2020,1928,2106,2123,1745188047917153777
13556364,2021,1906,2109,2125,1745188047917153777
13557364,2020,1884,2095,2091,1745188047917153777
13558364,2018,1881,2070,2098,1745188047917153777
13559364,2009,1916,2052,2184,1745188047917153777
13560364,1997,1996,2056,2316,1745188047917153777
13561364,1981,2098,2077,2443,1745188047917153777
13562365,1966,2176,2105,2516,1745188047917153777
13563365,1958,2222,2130,2525,1745188047917153777
13564366,1951,2259,2152,2483,1745188047917153777
13565365,1955,2290,2160,2419,1745188047917153777
13566365,1964,2297,2158,2355,1745188047917153777
13567365,1974,2277,2144,2313,1745188047917153777
13568365,1982,2243,2123,2297,1745188047917153777
13569365,1995,2200,2100,2280,1745188047917153777
13570365,2010,2153,2079,2277,1745188047917153777
13571365,2046,2092,2057,2269,1745188047917153777
13572365,2025,2068,2040,2236,1745188047917153777
13573365,2043,2073,2054,2198,1745188047917153777
13574366,2057,2060,2034,2133,1745188047917153777
13575366,2034,2033,1993,2080,1745188047917153777
13576366,2034,2041,1975,2003,1745188047917153777
13577366,2027,2058,1960,1944,1745188047917153777
13578366,2017,2082,1958,1912,1745188047917153777
13579366,2004,2110,1968,1907,1745188047917153777
13580366,1989,2141,1982,1912,1745188047917153777
13581366,1981,2161,1995,1925,1745188047917153777
13582366,1977,2172,2004,1946,1745188047917153777
13583366,1976,2205,2005,1973,1745188047917153777
13584366,1980,2253,2002,1993,1745188047917153777
13585366,1985,2293,1998,2000,1745188047917153777
13586367,1990,2320,1995,2008,1745188047917153777
13587367,2000,2326,2003,2027,1745188047917153777
13588367,2009,2311,2014,2064,1745188047917153777
13589367,2023,2279,2019,2102,1745188047917153777
13590367,2037,2230,2021,2133,1745188047917153777
13591367,2054,2179,2013,2096,1745188047917153777
13592367,2067,2131,2003,2000,1745188047917153777
13593367,2076,2096,1990,1862,1745188047985122322
13594367,2080,2070,1985,1750,1745188047985122322
13595367,2076,2054,1982,1714,1745188047985122322
13596367,2065,2053,1987,1774,1745188047985122322
13597367,2052,2065,1999,1877,1745188047985122322
13598368,2036,2087,2009,1962,1745188047985122322
13599368,2022,2114,2009,2048,1745188047985122322
13600368,2006,2146,2000,2161,1745188047985122322
13601368,1992,2182,2000,2301,1745188047985122322
13602368,1981,2217,2005,2429,1745188047985122322
13603368,1972,2244,2014,2509,1745188047985122322
13604368,1968,2261,2022,2530,1745188047985122322
13605368,1968,2269,2028,2498,1745188047985122322
13606368,1971,2268,2037,2435,1745188047985122322
13607368,1979,2245,2048,2370,1745188047985122322
13608368,1985,2205,2051,2309,1745188047985122322
13609368,1987,2156,2048,2244,1745188047985122322
13610369,1981,2105,2033,2166,1745188047985122322
13611369,1984,2056,2009,2092,1745188047985122322
13612369,1988,2019,1978,2021,1745188047985122322
13613369,1981,1981,1947,1964,1745188047985122322
13614369,1965,1938,1923,1904,1745188047985122322
13615369,1948,1883,1905,1847,1745188047985122322
13616369,1936,1844,1901,1814,1745188047985122322
13617369,1933,1840,1915,1808,1745188047985122322
13618369,1936,1860,1937,1825,1745188047985122322
13619369,1936,1924,1958,1881,1745188047985122322
13620369,1928,2043,1966,2002,1745188047985122322
13621369,1916,2167,1961,2171,1745188047985122322
13622370,1908,2243,1947,2344,1745188047985122322
13623370,1909,2272,1931,2485,1745188047985122322
13624370,1915,2289,1920,2559,1745188047985122322
13625370,1923,2284,1923,2559,1745188047985122322
13626370,1927,2250,1942,2513,1745188047985122322
13627370,1936,2220,1976,2428,1745188047985122322
13628370,1948,2209,2013,2357,1745188047985122322
13629370,1965,2193,2048,2306,1745188047985122322
13630370,1989,2155,2061,2290,1745188047985122322
13631370,2020,2106,2060,2285,1745188047985122322
13632370,2056,2059,2051,2272,1745188047985122322
13633370,2088,2020,2061,2225,1745188047985122322
13634371,2105,1988,2021,2193,1745188047985122322
13635371,2147,1959,2023,2120,1745188047985122322
13636371,2117,1967,2033,2078,1745188047985122322
13637371,2125,1971,2041,2007,1745188047985122322
13638371,2117,1985,2049,1904,1745188047985122322
13639371,2105,2008,2035,1784,1745188047985122322
13640371,2090,2038,2017,1697,1745188047985122322
13641371,2073,2083,2002,1691,1745188047985122322
13642371,2058,2125,1990,1756,1745188047985122322
13643371,2050,2156,1988,1833,1745188047985122322
13644371,2048,2178,1996,1861,1745188047985122322
13645371,2054,2189,2003,1813,1745188047985122322
13646372,2068,2188,2000,1749,1745188047985122322
13647372,2083,2172,1990,1764,1745188047985122322
13648372,2099,2143,1987,1897,1745188047985122322
13649372,2118,2109,1988,2083,1745188047985122322
13650372,2136,2057,1994,2249,1745188047985122322
13651372,2154,2012,2000,2352,1745188048033275372
13652372,2166,1972,2008,2379,1745188048033275372
13653372,2173,1955,2018,2325,1745188048033275372
13654372,2176,1938,2029,2214,1745188048033275372
13655372,2173,1926,2044,2080,1745188048033275372
13656372,2164,1925,2057,1959,1745188048033275372
13657372,2157,1946,2061,1893,1745188048033275372
13658373,2152,1974,2064,1889,1745188048033275372
13659373,2144,2010,2068,1918,1745188048033275372
13660373,2130,2052,2072,1954,1745188048033275372
13661373,2117,2101,2077,1991,1745188048033275372
13662373,2104,2148,2076,2027,1745188048033275372
