timestamp,emg0,emg1,emg2,emg3,pkt_time_ns
10021591,4053,3862,1232,4084,1745187642423490352
10022589,4054,3925,1174,4084,1745187642423490352
10023589,4062,3969,1110,4084,1745187642423490352
10024589,4067,4001,1045,4085,1745187642423490352
10025589,4070,4020,971,4086,1745187642423490352
10026589,4073,4038,896,4084,1745187642423490352
10027589,4076,4050,816,4084,1745187642423490352
10028589,4077,4059,735,4085,1745187642423490352
10029589,4078,4066,652,4085,1745187642423490352
10030590,4080,4068,573,4086,1745187642423490352
10031590,4081,4073,505,4085,1745187642423490352
10032590,4080,4074,427,4086,1745187642423490352
10033590,4081,4076,353,4084,1745187642423490352
10034590,4082,4077,284,4086,1745187642423490352
10035590,4080,4080,230,4085,1745187642423490352
10036590,4081,4080,187,4085,1745187642423490352
10037590,4084,4080,154,4086,1745187642423490352
10038590,4082,4080,128,4085,1745187642423490352
10039590,4082,4080,107,4084,1745187642423490352
10040590,4082,4080,90,4084,1745187642423490352
10041590,4083,4082,77,4085,1745187642423490352
10042591,4082,4081,66,4085,1745187642423490352
10043591,4082,4082,58,4085,1745187642423490352
10044591,4082,4081,51,4085,1745187642423490352
10045591,4082,4081,46,4085,1745187642423490352
10046591,4082,4083,42,4086,1745187642423490352
10047591,4082,4082,37,4085,1745187642423490352
10048591,4082,4082,36,4085,1745187642423490352
10049591,4081,4082,34,4083,1745187642423490352
10050591,4081,4083,33,4084,1745187642423490352
10051591,4083,4083,32,4086,1745187642423490352
10052591,4082,4082,30,4084,1745187642423490352
10053591,4083,4082,28,4085,1745187642423490352
10054592,4083,4082,28,4086,1745187642423490352
10055592,4083,4082,27,4085,1745187642423490352
10056592,4082,4084,27,4085,1745187642423490352
10057592,4083,4083,26,4086,1745187642423490352
10058592,4084,4084,26,4085,1745187642423490352
10059592,4084,4083,25,4086,1745187642423490352
10060592,4081,4082,25,4085,1745187642423490352
10061592,4083,4082,25,4085,1745187642423490352
10062592,4084,4083,25,4084,1745187642423490352
10063592,4083,4082,25,4085,1745187642423490352
10064592,4083,4083,24,4084,1745187642423490352
10065592,4083,4083,24,4085,1745187642423490352
10066593,4083,4082,24,4086,1745187642423490352
10067593,4082,4083,24,4085,1745187642423490352
10068593,4084,4082,24,4085,1745187642423490352
10069593,4083,4082,24,4086,1745187642423490352
10070593,4084,4083,24,4087,1745187642423490352
10071593,4083,4083,22,4085,1745187642423490352
10072593,4084,4083,24,4086,1745187642423490352
10073593,4083,4083,24,4086,1745187642423490352
10074593,4083,4083,24,4085,1745187642423490352
10075593,4084,4082,25,4085,1745187642423490352
10076593,4084,4083,24,4085,1745187642423490352
10077593,4082,4082,24,4085,1745187642423490352
10078594,4084,4083,23,4085,1745187642423490352
10079594,4083,4083,24,4085,1745187642479944419
10080594,4083,4084,22,4060,1745187642479944419
10081594,4083,4083,23,3979,1745187642479944419
10082594,4083,4083,24,3863,1745187642479944419
10083594,4084,4083,24,3730,1745187642479944419
10084594,4084,4084,27,3587,1745187642479944419
10085594,4083,4084,23,3455,1745187642479944419
10086594,4082,4081,22,3302,1745187642479944419
10087594,4083,4082,24,3153,1745187642479944419
10088594,4084,4084,22,3001,1745187642479944419
10089595,4081,4083,21,2854,1745187642479944419
10090595,4091,4077,18,2692,1745187642479944419
10091595,4069,4095,14,2592,1745187642479944419
10092595,4095,4095,22,2368,1745187642479944419
10093595,4032,4033,20,2230,1745187642479944419
10094595,4061,3979,20,2083,1745187642479944419
10095595,4069,3899,19,1931,1745187642479944419
10096595,4073,3811,19,1781,1745187642479944419
10097595,4080,3772,19,1622,1745187642479944419
10098595,4072,3712,21,1476,1745187642479944419
10099595,4078,3650,20,1310,1745187642479944419
10100595,4079,3583,21,1138,1745187642479944419
10101595,4080,3504,20,955,1745187642479944419
10102596,4082,3418,19,771,1745187642479944419
10103596,4080,3330,20,612,1745187642479944419
10104596,4082,3240,29,499,1745187642479944419
10105596,4081,3144,67,403,1745187642479944419
10106596,4082,3042,133,324,1745187642479944419
10107596,4081,2941,212,265,1745187642479944419
10108596,4081,2843,301,216,1745187642479944419
10109596,4082,2728,401,177,1745187642479944419
10110596,4078,2590,511,145,1745187642479944419
10111596,4081,2443,613,121,1745187642479944419
10112596,4081,2287,728,101,1745187642479944419
10113596,4081,2136,843,86,1745187642479944419
10114597,4079,1992,959,74,1745187642479944419
10115597,4085,1853,1066,62,1745187642479944419
10116597,4078,1722,1170,56,1745187642479944419
10117597,4078,1589,1272,48,1745187642479944419
10118597,4081,1467,1379,43,1745187642479944419
10119597,4080,1334,1491,39,1745187642479944419
10120597,4078,1200,1613,36,1745187642479944419
10121597,4078,1064,1763,33,1745187642479944419
10122597,4079,925,1918,30,1745187642479944419
10123597,4080,788,2078,28,1745187642479944419
10124597,4081,659,2226,13,1745187642479944419
10125597,4080,538,2368,27,1745187642479944419
10126598,4076,439,2501,26,1745187642479944419
10127598,3969,350,2618,25,1745187642479944419
10128598,3739,283,2739,24,1745187642479944419
10129598,3444,228,2850,23,1745187642479944419
10130598,3108,186,2958,22,1745187642479944419
10131598,2764,152,3065,24,1745187642479944419
10132598,2435,125,3169,22,1745187642479944419
10133598,2112,105,3274,23,1745187642479944419
10134598,1792,86,3384,21,1745187642479944419
10135598,1491,74,3495,21,1745187642479944419
10136598,1184,64,3605,21,1745187642479944419
10137598,929,56,3725,22,1745187642540667458
10138599,736,49,3828,21,1745187642540667458
10139599,586,44,3901,21,1745187642540667458
10140599,477,40,3951,21,1745187642540667458
10141599,385,36,3987,21,1745187642540667458
10142599,310,34,4012,21,1745187642540667458
10143599,252,31,4032,20,1745187642540667458
10144599,205,30,4043,20,1745187642540667458
10145600,168,29,4052,21,1745187642540667458
10146599,140,27,4059,19,1745187642540667458
10147600,115,26,4072,19,1745187642540667458
10148599,96,20,4095,17,1745187642540667458
10149599,80,28,4021,20,1745187642540667458
10150600,72,25,4053,21,1745187642540667458
10151600,62,25,4061,20,1745187642540667458
10152600,56,22,4068,14,1745187642540667458
10153600,49,22,4068,20,1745187642540667458
10154600,44,24,4073,20,1745187642540667458
10155600,40,22,4075,19,1745187642540667458
10156600,36,22,4076,21,1745187642540667458
10157600,34,22,4073,20,1745187642540667458
10158600,32,22,4078,18,1745187642540667458
10159600,31,22,4080,22,1745187642540667458
10160600,30,21,4080,19,1745187642540667458
10161600,28,21,4080,20,1745187642540667458
10162601,27,21,4080,19,1745187642540667458
10163601,28,21,4080,19,1745187642540667458
10164601,26,21,4080,18,1745187642540667458
10165601,26,21,4081,18,1745187642540667458
10166601,25,21,4081,18,1745187642540667458
10167601,24,22,4077,17,1745187642540667458
10168601,25,16,4080,20,1745187642540667458
10169601,25,21,4081,18,1745187642540667458
10170601,25,21,4081,17,1745187642540667458
10171601,24,20,4081,18,1745187642540667458
10172601,25,20,4082,20,1745187642540667458
10173601,24,21,4081,17,1745187642540667458
10174602,22,21,4082,20,1745187642540667458
10175602,22,21,4082,18,1745187642540667458
10176602,22,22,4081,18,1745187642540667458
10177602,22,20,4081,19,1745187642540667458
10178602,24,20,4082,17,1745187642540667458
10179602,22,21,4081,17,1745187642540667458
10180602,21,21,4081,19,1745187642540667458
10181602,22,21,4082,18,1745187642540667458
10182602,22,20,4082,17,1745187642540667458
10183602,22,20,4081,17,1745187642540667458
10184602,21,21,4082,19,1745187642540667458
10185602,22,21,4081,19,1745187642540667458
10186603,22,21,4081,20,1745187642540667458
10187603,22,21,4081,18,1745187642540667458
10188603,21,21,4081,18,1745187642540667458
10189603,22,20,4082,17,1745187642540667458
10190603,21,20,4081,18,1745187642540667458
10191603,22,18,4082,18,1745187642540667458
10192603,21,21,4082,18,1745187642540667458
10193603,21,21,4081,18,1745187642540667458
10194603,21,20,4083,18,1745187642540667458
10195603,22,20,4083,18,1745187642600001395
10196603,21,20,4083,19,1745187642600001395
10197603,21,21,4082,19,1745187642600001395
10198604,20,21,4083,19,1745187642600001395
10199604,21,19,4082,17,1745187642600001395
10200604,22,20,4081,18,1745187642600001395
10201604,22,20,4083,19,1745187642600001395
10202604,21,20,4080,17,1745187642600001395
10203604,21,19,4075,19,1745187642600001395
10204604,21,20,4095,30,1745187642600001395
10205604,20,20,4084,94,1745187642600001395
10206604,22,23,4085,201,1745187642600001395
10207604,22,21,4093,318,1745187642600001395
10208604,14,20,4095,455,1745187642600001395
10209604,16,16,4095,576,1745187642600001395
10210605,21,21,4048,709,1745187642600001395
10211605,21,21,4065,852,1745187642600001395
10212605,21,20,4072,992,1745187642600001395
10213605,21,20,4075,1132,1745187642600001395
10214605,22,20,4077,1276,1745187642600001395
10215605,22,20,4083,1402,1745187642600001395
10216605,21,21,4081,1533,1745187642600001395
10217605,21,45,4078,1650,1745187642600001395
10218605,20,96,4083,1777,1745187642600001395
10219605,21,162,4082,1898,1745187642600001395
10220605,20,242,4082,2017,1745187642600001395
10221605,21,321,4082,2132,1745187642600001395
10222606,21,402,4083,2242,1745187642600001395
10223606,21,483,4083,2342,1745187642600001395
10224606,21,557,4076,2438,1745187642600001395
10225606,19,642,4042,2529,1745187642600001395
10226606,21,728,3981,2608,1745187642600001395
10227606,21,811,3907,2690,1745187642600001395
10228606,20,896,3821,2772,1745187642600001395
10229606,20,975,3732,2852,1745187642600001395
10230606,20,1052,3648,2933,1745187642600001395
10231606,21,1125,3572,3013,1745187642600001395
10232606,21,1201,3496,3098,1745187642600001395
10233606,21,1285,3424,3181,1745187642600001395
10234607,20,1378,3357,3264,1745187642600001395
10235607,20,1468,3300,3341,1745187642600001395
10236607,20,1535,3247,3421,1745187642600001395
10237607,12,1566,3194,3502,1745187642600001395
10238607,20,1595,3137,3582,1745187642600001395
10239607,20,1619,3070,3648,1745187642600001395
10240607,19,1645,3005,3715,1745187642600001395
10241607,20,1680,2945,3784,1745187642600001395
10242607,19,1717,2888,3850,1745187642600001395
10243607,21,1756,2838,3916,1745187642600001395
10244607,20,1799,2793,3965,1745187642600001395
10245608,20,1853,2748,3998,1745187642600001395
10246609,19,1920,2704,4022,1745187642600001395
10247608,24,1986,2658,4040,1745187642600001395
10248608,20,2043,2616,4052,1745187642600001395
10249608,20,2080,2571,4059,1745187642600001395
10250608,20,2099,2540,4064,1745187642600001395
10251608,20,2110,2504,4068,1745187642600001395
10252608,20,2118,2468,4072,1745187642600001395
10253608,20,2137,2435,4075,1745187642655281880
10254608,20,2181,2402,4078,1745187642655281880
10255608,20,2237,2374,4077,1745187642655281880
10256608,20,2297,2347,4078,1745187642655281880
10257608,20,2354,2321,4082,1745187642655281880
10258609,21,2406,2297,4081,1745187642655281880
10259609,19,2453,2269,4081,1745187642655281880
10260609,20,2496,2234,4082,1745187642655281880
10261609,20,2536,2190,4084,1745187642655281880
10262609,21,2561,2140,4082,1745187642655281880
10263609,21,2590,2089,4083,1745187642655281880
10264610,20,2613,2040,4078,1745187642655281880
10265609,20,2624,2001,4082,1745187642655281880
10266609,20,2645,1955,4084,1745187642655281880
10267609,21,2694,1900,4081,1745187642655281880
10268609,29,2829,1870,4095,1745187642655281880
10269609,82,2837,1750,4031,1745187642655281880
10270610,188,2924,1688,4066,1745187642655281880
10271610,313,2990,1628,4076,1745187642655281880
10272610,443,3021,1570,4080,1745187642655281880
10273610,564,3027,1520,4082,1745187642655281880
10274610,690,3034,1459,4082,1745187642655281880
10275610,813,3052,1398,4084,1745187642655281880
10276610,932,3092,1347,4084,1745187642655281880
10277610,1046,3141,1311,4086,1745187642655281880
10278610,1158,3176,1297,4085,1745187642655281880
10279610,1270,3178,1294,4085,1745187642655281880
10280610,1382,3176,1292,4086,1745187642655281880
10281610,1496,3168,1280,4086,1745187642655281880
10282611,1603,3201,1256,4077,1745187642655281880
10283611,1721,3228,1237,4087,1745187642655281880
10284611,1837,3256,1216,4083,1745187642655281880
10285611,1956,3279,1198,4085,1745187642655281880
10286611,2077,3300,1182,4088,1745187642655281880
10287611,2193,3315,1172,4086,1745187642655281880
10288611,2307,3324,1164,4086,1745187642655281880
10289611,2419,3328,1145,4085,1745187642655281880
10290611,2518,3328,1111,4088,1745187642655281880
10291611,2602,3328,1062,4088,1745187642655281880
10292611,2691,3328,1012,4089,1745187642655281880
10293611,2774,3328,967,4087,1745187642655281880
10294612,2852,3331,925,4090,1745187642655281880
10295612,2932,3338,892,4090,1745187642655281880
10296612,3008,3344,864,4086,1745187642655281880
10297612,3082,3341,835,4088,1745187642655281880
10298612,3154,3339,799,4090,1745187642655281880
10299612,3227,3338,755,4090,1745187642655281880
10300612,3298,3338,712,4090,1745187642655281880
10301612,3364,3344,680,4093,1745187642655281880
10302612,3429,3346,657,4089,1745187642655281880
10303612,3496,3354,647,4089,1745187642655281880
10304612,3564,3374,651,4091,1745187642655281880
10305612,3617,3398,673,4089,1745187642655281880
10306613,3675,3419,704,4090,1745187642655281880
10307613,3728,3432,732,4091,1745187642655281880
10308613,3776,3429,752,4089,1745187642655281880
10309613,3824,3412,772,4091,1745187642655281880
10310613,3870,3380,796,4090,1745187642655281880
10311613,3916,3350,825,4088,1745187642716696007
10312613,3961,3312,862,4090,1745187642716696007
10313613,3997,3262,907,4090,1745187642716696007
10314613,4025,3211,958,4088,1745187642716696007
10315613,4042,3173,1009,4089,1745187642716696007
10316613,4053,3173,1053,4089,1745187642716696007
10317613,4063,3220,1089,4089,1745187642716696007
10318614,4072,3293,1122,4088,1745187642716696007
10319614,4076,3352,1155,4088,1745187642716696007
10320615,4081,3391,1181,4089,1745187642716696007
10321614,4046,3416,1198,4088,1745187642716696007
10322614,3960,3426,1201,4093,1745187642716696007
10323614,3838,3492,1217,4095,1745187642716696007
10324614,3822,3465,1172,4036,1745187642716696007
10325614,3648,3374,1172,4034,1745187642716696007
10326614,3652,3384,1169,4008,1745187642716696007
10327614,3666,3399,1153,3972,1745187642716696007
10328614,3700,3429,1123,3926,1745187642716696007
10329614,3737,3424,1092,3889,1745187642716696007
10330615,3780,3430,1053,3853,1745187642716696007
10331615,3824,3426,1017,3822,1745187642716696007
10332615,3860,3408,991,3800,1745187642716696007
10333615,3906,3386,972,3781,1745187642716696007
10334615,3962,3360,956,3769,1745187642716696007
10335615,4006,3336,941,3756,1745187642716696007
10336615,4036,3322,930,3734,1745187642716696007
10337615,4054,3323,935,3705,1745187642716696007
10338615,4067,3330,949,3677,1745187642716696007
10339615,4074,3343,963,3648,1745187642716696007
10340615,4077,3369,973,3621,1745187642716696007
10341615,4081,3398,977,3596,1745187642716696007
10342616,4083,3410,974,3580,1745187642716696007
10343616,4085,3393,968,3554,1745187642716696007
10344616,4087,3357,958,3526,1745187642716696007
10345616,4088,3318,949,3493,1745187642716696007
10346616,4088,3288,933,3458,1745187642716696007
10347616,4088,3268,914,3416,1745187642716696007
10348616,4087,3261,892,3379,1745187642716696007
10349616,4086,3253,873,3337,1745187642716696007
10350616,4086,3243,859,3301,1745187642716696007
10351616,4088,3220,850,3268,1745187642716696007
10352616,4089,3195,848,3240,1745187642716696007
10353616,4088,3205,850,3216,1745187642716696007
10354617,4089,3225,858,3198,1745187642716696007
10355617,4090,3250,862,3186,1745187642716696007
10356617,4089,3259,866,3178,1745187642716696007
10357617,4088,3238,869,3176,1745187642716696007
10358617,4091,3202,869,3174,1745187642716696007
10359617,4090,3170,867,3175,1745187642716696007
10360617,4091,3152,863,3176,1745187642716696007
10361617,4089,3166,858,3178,1745187642716696007
10362617,4089,3204,853,3176,1745187642716696007
10363617,4091,3232,848,3166,1745187642716696007
10364617,4088,3235,841,3153,1745187642716696007
10365617,4089,3224,833,3132,1745187642716696007
10366618,4089,3213,827,3109,1745187642716696007
10367618,4089,3220,824,3078,1745187642716696007
10368618,4090,3246,822,3048,1745187642716696007
10369618,4091,3285,822,3012,1745187642771919929
10370618,4090,3325,828,2980,1745187642771919929
10371618,4089,3341,838,2952,1745187642771919929
10372618,4088,3310,852,2925,1745187642771919929
10373618,4089,3222,869,2905,1745187642771919929
10374618,4089,3088,888,2892,1745187642771919929
10375618,4088,2956,909,2889,1745187642771919929
10376619,4088,2866,930,2890,1745187642771919929
10377618,4085,2841,948,2891,1745187642771919929
10378619,4085,2869,964,2889,1745187642771919929
10379619,4080,2916,972,2896,1745187642771919929
10380619,4089,2966,974,2901,1745187642771919929
10381620,4093,3015,966,2934,1745187642771919929
10382619,4074,3044,958,2888,1745187642771919929
10383619,4089,3040,947,2874,1745187642771919929
10384619,4087,2973,937,2895,1745187642771919929
10385619,4095,2994,938,2900,1745187642771919929
10386619,4050,2852,904,2802,1745187642771919929
10387619,4060,2837,908,2786,1745187642771919929
10388619,4068,2828,909,2773,1745187642771919929
10389619,4074,2819,921,2756,1745187642771919929
10390620,4065,2814,912,2753,1745187642771919929
10391620,4082,2814,917,2746,1745187642771919929
10392620,4081,2810,932,2739,1745187642771919929
10393620,4084,2808,955,2733,1745187642771919929
10394620,4083,2800,976,2730,1745187642771919929
10395620,4084,2794,993,2728,1745187642771919929
10396620,4085,2793,1000,2735,1745187642771919929
10397620,4083,2795,994,2746,1745187642771919929
10398620,4083,2802,979,2757,1745187642771919929
10399620,4084,2821,960,2769,1745187642771919929
10400620,4085,2840,942,2777,1745187642771919929
10401620,4085,2844,931,2786,1745187642771919929
10402621,4086,2857,930,2793,1745187642771919929
10403621,4087,2862,944,2797,1745187642771919929
10404621,4085,2833,972,2800,1745187642771919929
10405621,4086,2769,1003,2794,1745187642771919929
10406621,4085,2723,1035,2782,1745187642771919929
10407621,4084,2707,1056,2765,1745187642771919929
10408621,4085,2713,1065,2744,1745187642771919929
10409621,4084,2738,1062,2723,1745187642771919929
10410621,4084,2769,1054,2706,1745187642771919929
10411621,4085,2804,1042,2688,1745187642771919929
10412621,4084,2821,1040,2673,1745187642771919929
10413621,4086,2825,1040,2658,1745187642771919929
10414622,4085,2831,1048,2646,1745187642771919929
10415622,4086,2835,1060,2636,1745187642771919929
10416622,4085,2837,1070,2625,1745187642771919929
10417622,4085,2837,1074,2617,1745187642771919929
10418622,4084,2826,1075,2608,1745187642771919929
10419622,4085,2802,1075,2593,1745187642771919929
10420622,4083,2773,1076,2573,1745187642771919929
10421622,4085,2752,1087,2554,1745187642771919929
10422622,4082,2739,1102,2524,1745187642771919929
10423622,4083,2734,1128,2491,1745187642771919929
10424622,4084,2730,1156,2457,1745187642771919929
10425622,4082,2730,1188,2419,1745187642771919929
10426623,4074,2742,1217,2381,1745187642771919929
10427623,4058,2758,1249,2344,1745187642832842393
10428623,4037,2769,1284,2309,1745187642832842393
10429623,4012,2772,1323,2275,1745187642832842393
10430623,3984,2771,1364,2244,1745187642832842393
10431623,3953,2766,1405,2214,1745187642832842393
10432623,3922,2757,1446,2192,1745187642832842393
10433623,3888,2749,1488,2172,1745187642832842393
10434623,3852,2753,1524,2158,1745187642832842393
10435623,3816,2761,1553,2150,1745187642832842393
10436623,3778,2785,1586,2153,1745187642832842393
10437624,3740,2802,1614,2154,1745187642832842393
10438624,3697,2810,1637,2156,1745187642832842393
10439624,3664,2782,1652,2161,1745187642832842393
10440624,3698,2793,1700,2203,1745187642832842393
10441624,3698,2650,1681,2194,1745187642832842393
10442624,3672,2654,1700,2123,1745187642832842393
10443624,3544,2550,1678,2114,1745187642832842393
10444624,3546,2559,1704,2106,1745187642832842393
10445624,3539,2584,1747,2077,1745187642832842393
10446624,3519,2644,1744,2064,1745187642832842393
10447624,3525,2704,1762,2040,1745187642832842393
10448624,3518,2744,1772,2022,1745187642832842393
10449624,3505,2759,1774,2004,1745187642832842393
10450625,3487,2745,1771,1989,1745187642832842393
10451625,3465,2713,1764,1981,1745187642832842393
10452625,3441,2674,1753,1976,1745187642832842393
10453625,3418,2646,1737,1969,1745187642832842393
10454625,3391,2637,1718,1961,1745187642832842393
10455625,3364,2642,1696,1954,1745187642832842393
10456625,3337,2646,1673,1948,1745187642832842393
10457625,3310,2649,1656,1940,1745187642832842393
10458625,3284,2648,1648,1936,1745187642832842393
10459625,3262,2644,1649,1929,1745187642832842393
10460625,3241,2638,1654,1920,1745187642832842393
10461625,3224,2634,1661,1908,1745187642832842393
10462626,3209,2630,1666,1895,1745187642832842393
10463626,3202,2627,1674,1881,1745187642832842393
10464626,3189,2621,1678,1868,1745187642832842393
10465626,3183,2609,1675,1854,1745187642832842393
10466626,3176,2592,1661,1837,1745187642832842393
10467626,3164,2578,1643,1820,1745187642832842393
10468626,3160,2570,1626,1802,1745187642832842393
10469626,3146,2568,1618,1785,1745187642832842393
10470626,3133,2577,1621,1771,1745187642832842393
10471626,3118,2576,1641,1762,1745187642832842393
10472626,3100,2580,1677,1757,1745187642832842393
10473626,3078,2577,1734,1755,1745187642832842393
10474627,3057,2560,1809,1756,1745187642832842393
10475627,3033,2539,1886,1759,1745187642832842393
10476627,3013,2500,1956,1770,1745187642832842393
10477627,2992,2444,2012,1782,1745187642832842393
10478627,2970,2409,2056,1797,1745187642832842393
10479627,2954,2421,2093,1808,1745187642832842393
10480627,2933,2459,2131,1813,1745187642832842393
10481627,2917,2480,2174,1816,1745187642832842393
10482627,2904,2474,2217,1814,1745187642832842393
10483627,2891,2462,2253,1810,1745187642832842393
10484627,2878,2463,2277,1809,1745187642832842393
10485627,2868,2480,2293,1804,1745187642912597394
10486628,2860,2493,2304,1796,1745187642912597394
10487628,2855,2480,2309,1789,1745187642912597394
10488628,2850,2448,2310,1781,1745187642912597394
10489628,2841,2416,2305,1773,1745187642912597394
10490628,2832,2388,2294,1768,1745187642912597394
10491628,2817,2364,2277,1763,1745187642912597394
10492628,2797,2348,2253,1758,1745187642912597394
10493628,2778,2340,2225,1755,1745187642912597394
10494628,2756,2332,2193,1757,1745187642912597394
10495628,2731,2333,2153,1771,1745187642912597394
10496628,2709,2338,2126,1765,1745187642912597394
10497628,2669,2341,2076,1781,1745187642912597394
10498629,2658,2331,2024,1789,1745187642912597394
10499630,2632,2325,1978,1785,1745187642912597394
10500629,2600,2308,1940,1797,1745187642912597394
10501629,2656,2365,1950,1831,1745187642912597394
10502629,2590,2288,1859,1780,1745187642912597394
10503629,2619,2346,1892,1814,1745187642912597394
10504629,2544,2272,1811,1764,1745187642912597394
10505629,2538,2277,1809,1761,1745187642912597394
10506629,2542,2272,1786,1749,1745187642912597394
10507629,2538,2272,1773,1733,1745187642912597394
10508629,2539,2274,1753,1720,1745187642912597394
10509629,2534,2270,1738,1705,1745187642912597394
10510630,2525,2255,1731,1694,1745187642912597394
10511630,2516,2238,1729,1680,1745187642912597394
10512630,2504,2222,1730,1673,1745187642912597394
10513630,2482,2208,1730,1666,1745187642912597394
10514630,2464,2193,1729,1664,1745187642912597394
10515630,2443,2178,1730,1662,1745187642912597394
10516630,2421,2170,1725,1667,1745187642912597394
10517630,2396,2165,1722,1674,1745187642912597394
10518630,2373,2166,1720,1679,1745187642912597394
10519630,2350,2169,1721,1684,1745187642912597394
10520630,2329,2176,1722,1687,1745187642912597394
10521630,2309,2186,1724,1688,1745187642912597394
10522631,2296,2203,1723,1682,1745187642912597394
10523631,2283,2224,1720,1672,1745187642912597394
10524631,2275,2242,1716,1658,1745187642912597394
10525631,2269,2250,1709,1643,1745187642912597394
10526631,2268,2250,1700,1626,1745187642912597394
10527631,2269,2241,1690,1611,1745187642912597394
10528631,2272,2220,1685,1596,1745187642912597394
10529631,2273,2196,1681,1582,1745187642912597394
10530631,2271,2171,1685,1570,1745187642912597394
10531631,2264,2148,1696,1560,1745187642912597394
10532631,2256,2132,1709,1554,1745187642912597394
10533631,2246,2123,1725,1549,1745187642912597394
10534632,2233,2120,1740,1552,1745187642912597394
10535632,2221,2117,1753,1556,1745187642912597394
10536632,2204,2121,1770,1568,1745187642912597394
10537632,2190,2124,1786,1582,1745187642912597394
10538632,2172,2136,1796,1599,1745187642912597394
10539632,2158,2148,1796,1613,1745187642912597394
10540632,2142,2159,1786,1622,1745187642912597394
10541632,2132,2165,1764,1626,1745187642912597394
10542632,2128,2170,1737,1624,1745187642912597394
10543632,2125,2169,1712,1619,1745187642958183280
10544632,2124,2166,1692,1610,1745187642958183280
10545632,2126,2164,1677,1595,1745187642958183280
10546633,2131,2161,1669,1578,1745187642958183280
10547633,2137,2157,1665,1558,1745187642958183280
10548633,2141,2153,1670,1540,1745187642958183280
10549633,2141,2146,1678,1534,1745187642958183280
10550633,2139,2138,1690,1525,1745187642958183280
10551633,2132,2128,1699,1520,1745187642958183280
10552633,2122,2117,1710,1522,1745187642958183280
10553633,2110,2106,1723,1526,1745187642958183280
10554633,2095,2091,1738,1534,1745187642958183280
10555633,2081,2079,1753,1542,1745187642958183280
10556633,2062,2067,1763,1554,1745187642958183280
10557633,2040,2059,1770,1572,1745187642958183280
10558634,2058,2107,1816,1614,1745187642958183280
10559634,2045,2041,1808,1620,1745187642958183280
10560634,2024,2085,1804,1620,1745187642958183280
10561634,2012,2075,1807,1622,1745187642958183280
10562634,1952,2012,1796,1630,1745187642958183280
10563634,2002,2070,1825,1626,1745187642958183280
10564634,1950,2025,1784,1616,1745187642958183280
10565634,1999,2048,1830,1603,1745187642958183280
10566634,2003,2034,1828,1585,1745187642958183280
10567634,2010,2021,1828,1576,1745187642958183280
10568634,2011,1973,1788,1549,1745187642958183280
10569634,2018,2006,1828,1568,1745187642958183280
10570635,2010,1997,1828,1564,1745187642958183280
10571635,2004,1987,1832,1563,1745187642958183280
10572635,1995,1986,1833,1535,1745187642958183280
10573635,1940,1946,1814,1546,1745187642958183280
10574635,1995,1965,1816,1588,1745187642958183280
10575635,1987,1989,1860,1595,1745187642958183280
10576635,1968,1987,1857,1611,1745187642958183280
10577635,1947,1982,1860,1628,1745187642958183280
10578635,1930,1984,1859,1648,1745187642958183280
10579635,1913,1983,1865,1661,1745187642958183280
10580635,1901,1987,1867,1675,1745187642958183280
10581635,1892,1990,1875,1661,1745187642958183280
10582636,1845,1946,1849,1665,1745187642958183280
10583636,1861,1969,1864,1677,1745187642958183280
10584636,1872,1976,1872,1680,1745187642958183280
10585636,1886,1980,1881,1676,1745187642958183280
10586636,1902,1981,1891,1670,1745187642958183280
10587636,1917,1981,1908,1664,1745187642958183280
10588636,1931,1978,1930,1656,1745187642958183280
10589636,1937,1974,1954,1652,1745187642958183280
10590636,1946,1971,1976,1651,1745187642958183280
10591636,1938,1965,1987,1654,1745187642958183280
10592636,1945,1960,1986,1670,1745187642958183280
10593636,1930,2001,1981,1684,1745187642958183280
10594637,1960,1984,1987,1689,1745187642958183280
10595637,1932,1973,1954,1689,1745187642958183280
10596637,1906,1963,1930,1697,1745187642958183280
10597637,1884,1961,1916,1707,1745187642958183280
10598637,1866,1955,1912,1720,1745187642958183280
10599637,1849,1956,1912,1734,1745187642958183280
10600637,1838,1953,1915,1744,1745187642958183280
10601637,1793,1914,1873,1725,1745187643005575243
10602637,1801,1933,1893,1737,1745187643005575243
10603637,1814,1944,1894,1741,1745187643005575243
10604637,1829,1952,1891,1739,1745187643005575243
10605637,1835,1957,1886,1729,1745187643005575243
10606638,1842,1959,1885,1717,1745187643005575243
10607638,1859,1961,1884,1705,1745187643005575243
10608638,1870,1961,1886,1689,1745187643005575243
10609638,1882,1961,1893,1676,1745187643005575243
10610638,1886,1961,1904,1668,1745187643005575243
10611638,1887,1962,1916,1668,1745187643005575243
10612638,1884,1961,1927,1669,1745187643005575243
10613638,1879,1960,1943,1678,1745187643005575243
10614638,1872,1957,1956,1687,1745187643005575243
10615638,1860,1954,1968,1701,1745187643005575243
10616638,1852,1958,1982,1720,1745187643005575243
10617638,1840,1960,1992,1740,1745187643005575243
10618639,1828,1958,1998,1761,1745187643005575243
10619639,1848,2009,2053,1818,1745187643005575243
10620639,1843,1950,1993,1785,1745187643005575243
10621639,1794,1948,2063,1855,1745187643005575243
10622639,1833,1988,2071,1807,1745187643005575243
10623639,1770,1932,2033,1809,1745187643005575243
10624639,1782,1941,2052,1802,1745187643005575243
10625639,1788,1941,2065,1778,1745187643005575243
10626639,1796,1987,2124,1782,1745187643005575243
10627639,1839,1965,2067,1689,1745187643005575243
10628639,1801,1916,2072,1670,1745187643005575243
10629639,1808,1920,2080,1649,1745187643005575243
10630640,1813,1921,2090,1633,1745187643005575243
10631640,1821,1914,2093,1624,1745187643005575243
10632640,1811,1928,2107,1620,1745187643005575243
10633640,1809,1930,2108,1623,1745187643005575243
10634640,1800,1934,2112,1629,1745187643005575243
10635640,1791,1937,2116,1641,1745187643005575243
10636640,1780,1939,2125,1656,1745187643005575243
10637640,1768,1940,2134,1674,1745187643005575243
10638640,1756,1940,2144,1692,1745187643005575243
10639640,1747,1942,2154,1710,1745187643005575243
10640640,1742,1943,2161,1727,1745187643005575243
10641640,1736,1946,2170,1736,1745187643005575243
10642641,1736,1950,2184,1740,1745187643005575243
10643641,1739,1952,2196,1738,1745187643005575243
10644641,1749,1953,2210,1731,1745187643005575243
10645641,1761,1953,2218,1723,1745187643005575243
10646641,1773,1948,2224,1712,1745187643005575243
10647641,1785,1942,2227,1702,1745187643005575243
10648641,1796,1934,2232,1692,1745187643005575243
10649641,1806,1927,2241,1684,1745187643005575243
10650641,1812,1920,2253,1688,1745187643005575243
10651641,1814,1910,2271,1698,1745187643005575243
10652641,1813,1906,2291,1720,1745187643005575243
10653641,1809,1901,2305,1744,1745187643005575243
10654642,1803,1901,2304,1771,1745187643005575243
10655642,1795,1908,2284,1803,1745187643005575243
10656642,1786,1901,2243,1842,1745187643005575243
10657642,1774,1905,2187,1885,1745187643005575243
10658642,1761,1912,2134,1931,1745187643005575243
10659642,1750,1921,2097,1962,1745187643064800222
10660642,1742,1929,2087,1972,1745187643064800222
10661642,1738,1937,2092,1961,1745187643064800222
10662642,1737,1944,2100,1927,1745187643064800222
10663642,1739,1950,2105,1880,1745187643064800222
10664642,1742,1958,2100,1827,1745187643064800222
10665642,1746,1968,2096,1779,1745187643064800222
10666643,1756,1972,2099,1733,1745187643064800222
10667643,1765,1979,2110,1698,1745187643064800222
10668643,1781,1978,2128,1679,1745187643064800222
10669643,1796,1981,2147,1676,1745187643064800222
10670643,1810,1981,2170,1688,1745187643064800222
10671643,1820,1985,2193,1707,1745187643064800222
10672643,1828,1988,2221,1734,1745187643064800222
10673643,1827,1993,2250,1811,1745187643064800222
10674643,1870,2042,2330,1786,1745187643064800222
10675643,1803,1980,2291,1817,1745187643064800222
10676643,1804,2004,2312,1845,1745187643064800222
10677643,1798,2013,2323,1877,1745187643064800222
10678644,1793,2022,2344,1904,1745187643064800222
10679644,1788,2030,2337,1950,1745187643064800222
10680644,1788,2035,2345,1986,1745187643064800222
10681644,1785,2037,2358,2015,1745187643064800222
10682644,1782,2036,2376,2043,1745187643064800222
10683644,1784,2032,2406,2067,1745187643064800222
10684644,1788,2025,2440,2084,1745187643064800222
10685644,1793,2019,2472,2097,1745187643064800222
10686644,1801,2010,2496,2098,1745187643064800222
10687644,1812,2002,2505,2094,1745187643064800222
10688644,1828,2000,2504,2094,1745187643064800222
10689644,1844,1996,2501,2099,1745187643064800222
10690645,1864,1993,2497,2110,1745187643064800222
10691645,1880,1991,2488,2123,1745187643064800222
10692645,1894,1986,2476,2134,1745187643064800222
10693645,1904,1990,2458,2146,1745187643064800222
10694645,1910,1980,2432,2156,1745187643064800222
10695645,1914,1982,2394,2164,1745187643064800222
10696645,1911,1982,2341,2171,1745187643064800222
10697645,1906,1984,2278,2180,1745187643064800222
10698645,1902,1987,2206,2195,1745187643064800222
10699645,1898,1990,2137,2214,1745187643064800222
10700645,1893,1990,2074,2235,1745187643064800222
10701645,1889,1986,2020,2253,1745187643064800222
10702646,1884,1981,1982,2264,1745187643064800222
10703646,1882,1975,1958,2260,1745187643064800222
10704646,1885,1969,1949,2248,1745187643064800222
10705646,1889,1961,1946,2220,1745187643064800222
10706646,1898,1956,1938,2184,1745187643064800222
10707646,1908,1950,1924,2145,1745187643064800222
10708646,1921,1946,1912,2113,1745187643064800222
10709646,1931,1946,1904,2090,1745187643064800222
10710646,1940,1942,1905,2081,1745187643064800222
10711646,1944,1945,1916,2083,1745187643064800222
10712646,1946,1945,1939,2093,1745187643064800222
10713646,1945,1951,1965,2107,1745187643064800222
10714647,1941,1960,1993,2124,1745187643064800222
10715647,1940,1969,2016,2138,1745187643064800222
10716647,1934,1980,2028,2149,1745187643064800222
10717647,1926,1989,2025,2161,1745187643127629596
10718647,1921,1997,2009,2168,1745187643127629596
10719647,1918,2001,1998,2172,1745187643127629596
10720647,1918,2003,1992,2174,1745187643127629596
10721647,1922,1999,1977,2171,1745187643127629596
10722647,1926,1991,1954,2166,1745187643127629596
10723647,1933,1986,1924,2162,1745187643127629596
10724647,1941,1980,1897,2163,1745187643127629596
10725647,1950,1974,1876,2168,1745187643127629596
10726648,1964,1970,1859,2172,1745187643127629596
10727648,1978,1968,1845,2166,1745187643127629596
10728648,1989,1968,1835,2142,1745187643127629596
10729649,2000,1962,1835,2100,1745187643127629596
10730648,2005,1971,1856,2048,1745187643127629596
10731648,2003,1990,1891,1992,1745187643127629596
10732649,1995,1980,1930,1941,1745187643127629596
10733648,2041,2038,2016,1957,1745187643127629596
10734648,1965,1979,1988,1898,1745187643127629596
10735648,1948,2002,2052,1926,1745187643127629596
10736648,1938,2021,2109,1978,1745187643127629596
10737648,1922,2040,2171,2059,1745187643127629596
10738649,1902,2059,2228,2118,1745187643127629596
10739649,1898,2074,2276,2183,1745187643127629596
10740649,1892,2088,2306,2232,1745187643127629596
10741649,1890,2097,2324,2267,1745187643127629596
10742649,1892,2104,2329,2282,1745187643127629596
10743649,1897,2108,2334,2275,1745187643127629596
10744649,1900,2110,2342,2250,1745187643127629596
10745649,1908,2114,2354,2213,1745187643127629596
10746649,1918,2114,2364,2171,1745187643127629596
10747649,1931,2113,2373,2131,1745187643127629596
10748649,1940,2110,2378,2106,1745187643127629596
10749649,1950,2105,2383,2093,1745187643127629596
10750650,1958,2102,2384,2102,1745187643127629596
10751650,1963,2098,2382,2120,1745187643127629596
10752650,1963,2096,2388,2140,1745187643127629596
10753650,1963,2092,2397,2155,1745187643127629596
10754650,1958,2089,2405,2164,1745187643127629596
10755650,1952,2084,2403,2171,1745187643127629596
10756650,1941,2082,2390,2178,1745187643127629596
10757650,1920,2082,2375,2187,1745187643127629596
10758650,1915,2083,2357,2197,1745187643127629596
10759650,1904,2082,2339,2206,1745187643127629596
10760650,1897,2085,2312,2209,1745187643127629596
10761650,1892,2086,2276,2203,1745187643127629596
10762651,1890,2088,2235,2186,1745187643127629596
10763651,1894,2088,2200,2156,1745187643127629596
10764651,1903,2084,2176,2116,1745187643127629596
10765651,1913,2076,2164,2072,1745187643127629596
10766651,1928,2066,2155,2021,1745187643127629596
10767651,1945,2051,2150,1982,1745187643127629596
10768651,1958,2036,2146,1961,1745187643127629596
10769651,1968,2021,2139,1957,1745187643127629596
10770651,1972,2010,2125,1962,1745187643127629596
10771651,1969,2005,2110,1979,1745187643127629596
10772651,1964,2005,2097,2014,1745187643127629596
10773651,1954,2009,2086,2061,1745187643127629596
10774652,1941,2017,2080,2114,1745187643127629596
10775652,1928,2021,2076,2165,1745187643187315249
10776652,1913,2022,2080,2215,1745187643187315249
10777652,1898,2021,2089,2257,1745187643187315249
10778652,1882,2020,2094,2289,1745187643187315249
10779652,1875,2018,2104,2306,1745187643187315249
10780652,1874,2021,2117,2313,1745187643187315249
10781652,1878,2021,2122,2314,1745187643187315249
10782652,1890,2024,2115,2313,1745187643187315249
10783652,1900,2022,2094,2308,1745187643187315249
10784652,1909,2019,2059,2299,1745187643187315249
10785652,1918,2014,2018,2284,1745187643187315249
10786653,1927,2008,1983,2269,1745187643187315249
10787653,1936,2001,1956,2251,1745187643187315249
10788653,1945,1990,1935,2237,1745187643187315249
10789653,1953,1984,1922,2230,1745187643187315249
10790653,1960,1974,1909,2210,1745187643187315249
10791654,1962,1971,1892,2184,1745187643187315249
10792653,1961,1965,1877,2163,1745187643187315249
10793653,1956,1961,1858,2163,1745187643187315249
10794653,1941,1955,1842,2112,1745187643187315249
10795653,1955,1989,1836,2111,1745187643187315249
10796653,1979,1989,1891,2032,1745187643187315249
10797653,1904,1917,1856,2021,1745187643187315249
10798654,1899,1933,1875,2043,1745187643187315249
10799654,1891,1937,1875,2080,1745187643187315249
10800654,1890,1940,1858,2121,1745187643187315249
10801654,1885,1940,1827,2174,1745187643187315249
10802654,1891,1944,1798,2222,1745187643187315249
10803654,1896,1944,1778,2258,1745187643187315249
10804654,1901,1945,1772,2275,1745187643187315249
10805654,1909,1942,1779,2271,1745187643187315249
10806654,1920,1936,1791,2252,1745187643187315249
10807654,1930,1928,1800,2223,1745187643187315249
10808654,1938,1922,1805,2193,1745187643187315249
10809654,1945,1915,1809,2162,1745187643187315249
10810655,1947,1908,1810,2134,1745187643187315249
10811655,1949,1906,1811,2108,1745187643187315249
10812655,1948,1905,1811,2088,1745187643187315249
10813655,1942,1906,1808,2075,1745187643187315249
10814655,1935,1908,1806,2073,1745187643187315249
10815655,1925,1911,1805,2076,1745187643187315249
10816655,1910,1916,1806,2078,1745187643187315249
10817655,1896,1921,1801,2051,1745187643187315249
10818655,1884,1928,1780,1998,1745187643187315249
10819655,1873,1931,1738,1932,1745187643187315249
10820655,1864,1936,1685,1875,1745187643187315249
10821655,1859,1937,1627,1832,1745187643187315249
10822656,1858,1937,1579,1803,1745187643187315249
10823656,1859,1936,1549,1784,1745187643187315249
10824656,1860,1933,1544,1782,1745187643187315249
10825656,1860,1932,1560,1811,1745187643187315249
10826656,1859,1937,1595,1861,1745187643187315249
10827656,1860,1945,1643,1916,1745187643187315249
10828656,1861,1955,1697,1964,1745187643187315249
10829656,1861,1966,1749,1998,1745187643187315249
10830656,1860,1977,1800,2032,1745187643187315249
10831656,1859,1983,1849,2064,1745187643187315249
10832656,1853,1984,1890,2090,1745187643187315249
10833656,1846,1984,1923,2108,1745187643238690457
10834657,1835,1986,1949,2125,1745187643238690457
10835657,1825,1992,1974,2139,1745187643238690457
10836657,1816,1998,1997,2152,1745187643238690457
10837657,1807,2004,2019,2156,1745187643238690457
10838657,1801,2011,2042,2157,1745187643238690457
10839657,1798,2015,2066,2154,1745187643238690457
10840657,1799,2017,2084,2148,1745187643238690457
10841657,1804,2012,2097,2142,1745187643238690457
10842657,1816,2009,2109,2138,1745187643238690457
10843657,1829,2003,2122,2133,1745187643238690457
10844657,1845,1996,2133,2129,1745187643238690457
10845657,1859,1988,2149,2123,1745187643238690457
10846659,1875,1979,2165,2107,1745187643238690457
10847658,1890,1973,2186,2088,1745187643238690457
10848658,1907,1967,2207,2070,1745187643238690457
10849658,1973,2009,2275,2101,1745187643238690457
10850658,1929,1968,2292,2094,1745187643238690457
10851658,1972,1978,2249,2093,1745187643238690457
10852658,1970,1967,2326,2097,1745187643238690457
10853658,1915,1906,2287,2060,1745187643238690457
10854658,1922,1924,2309,2070,1745187643238690457
10855658,1923,1970,2364,2124,1745187643238690457
10856658,1958,1972,2277,2073,1745187643238690457
10857658,1885,1933,2268,2092,1745187643238690457
10858659,1886,1950,2272,2089,1745187643238690457
10859659,1876,1964,2272,2068,1745187643238690457
10860659,1861,1973,2265,2040,1745187643238690457
10861659,1838,1980,2246,2009,1745187643238690457
10862659,1835,1996,2234,1981,1745187643238690457
10863659,1834,2003,2218,1965,1745187643238690457
10864659,1842,2008,2208,1968,1745187643238690457
10865659,1860,2019,2209,1986,1745187643238690457
10866659,1896,2011,2214,2009,1745187643238690457
10867659,1931,2009,2224,2031,1745187643238690457
10868659,1967,2009,2229,2054,1745187643238690457
10869659,2000,2005,2233,2064,1745187643238690457
10870660,2029,2003,2233,2068,1745187643238690457
10871660,2053,2001,2237,2058,1745187643238690457
10872660,2072,2001,2240,2036,1745187643238690457
10873660,2086,2002,2244,2016,1745187643238690457
10874660,2096,2005,2252,1999,1745187643238690457
10875660,2101,2009,2267,1995,1745187643238690457
10876660,2100,2009,2286,1996,1745187643238690457
10877660,2099,2011,2305,2006,1745187643238690457
10878660,2094,2011,2321,2017,1745187643238690457
10879660,2092,2010,2340,2026,1745187643238690457
10880660,2092,2008,2358,2028,1745187643238690457
10881660,2092,2006,2378,2020,1745187643238690457
10882661,2094,2002,2395,2003,1745187643238690457
10883661,2102,1996,2409,1981,1745187643238690457
10884661,2109,1991,2416,1963,1745187643238690457
10885661,2113,1984,2420,1953,1745187643238690457
10886661,2118,1975,2414,1958,1745187643238690457
10887661,2123,1968,2411,1977,1745187643238690457
10888661,2124,1962,2407,1997,1745187643238690457
10889662,2121,1962,2400,2023,1745187643238690457
10890661,2115,1965,2392,2059,1745187643238690457
10891661,2105,1971,2384,2086,1745187643299227664
10892661,2092,1981,2372,2083,1745187643299227664
10893661,2078,1988,2358,2044,1745187643299227664
10894662,2064,1996,2333,1993,1745187643299227664
10895662,2048,2001,2301,1947,1745187643299227664
10896662,2022,2003,2261,1913,1745187643299227664
10897662,1994,2006,2220,1896,1745187643299227664
10898662,1963,2005,2174,1891,1745187643299227664
10899662,1931,2003,2123,1892,1745187643299227664
10900662,1906,2001,2065,1908,1745187643299227664
10901662,1886,2002,2004,1942,1745187643299227664
10902662,1880,2009,1948,1992,1745187643299227664
10903662,1881,2017,1893,2043,1745187643299227664
10904662,1893,2028,1844,2088,1745187643299227664
10905663,1914,2036,1800,2109,1745187643299227664
10906663,1942,2044,1758,2085,1745187643299227664
10907663,1979,2088,1762,2066,1745187643299227664
10908663,2012,2024,1674,1920,1745187643299227664
10909663,2040,2029,1656,1830,1745187643299227664
10910663,2062,2026,1632,1773,1745187643299227664
10911663,2065,2025,1611,1766,1745187643299227664
10912663,2057,2021,1589,1810,1745187643299227664
10913663,2035,2034,1572,1899,1745187643299227664
10914663,2019,2043,1553,2001,1745187643299227664
10915663,2002,2057,1544,2105,1745187643299227664
10916663,1986,2070,1545,2196,1745187643299227664
10917663,1968,2085,1554,2264,1745187643299227664
10918664,1952,2098,1568,2300,1745187643299227664
10919664,1940,2114,1584,2300,1745187643299227664
10920664,1930,2130,1603,2274,1745187643299227664
10921664,1930,2145,1626,2226,1745187643299227664
10922664,1936,2160,1652,2148,1745187643299227664
10923664,1949,2178,1673,2049,1745187643299227664
10924664,1965,2194,1682,1945,1745187643299227664
10925664,1984,2201,1681,1893,1745187643299227664
10926664,2000,2205,1676,1873,1745187643299227664
10927664,2018,2204,1670,1876,1745187643299227664
10928664,2036,2203,1672,1887,1745187643299227664
10929664,2053,2203,1677,1894,1745187643299227664
10930665,2064,2208,1692,1901,1745187643299227664
10931665,2072,2219,1716,1910,1745187643299227664
10932665,2076,2233,1752,1930,1745187643299227664
10933665,2077,2245,1797,1957,1745187643299227664
10934665,2077,2261,1838,1996,1745187643299227664
10935665,2072,2275,1874,2040,1745187643299227664
10936665,2064,2289,1904,2088,1745187643299227664
10937665,2052,2298,1933,2133,1745187643299227664
10938665,2038,2306,1962,2160,1745187643299227664
10939665,2032,2312,1985,2148,1745187643299227664
10940665,2031,2313,2005,2097,1745187643299227664
10941665,2042,2311,2021,2017,1745187643299227664
10942666,2061,2306,2033,1936,1745187643299227664
10943666,2084,2301,2049,1858,1745187643299227664
10944666,2101,2288,2068,1816,1745187643299227664
10945666,2121,2278,2094,1810,1745187643299227664
10946666,2137,2271,2126,1829,1745187643299227664
10947666,2152,2268,2161,1850,1745187643299227664
10948666,2164,2264,2193,1861,1745187643299227664
10949666,2178,2258,2212,1857,1745187643358190094
10950666,2182,2249,2218,1852,1745187643358190094
10951666,2185,2237,2216,1861,1745187643358190094
10952667,2179,2222,2208,1907,1745187643358190094
10953666,2161,2206,2208,1986,1745187643358190094
10954668,2139,2192,2219,2070,1745187643358190094
10955667,2109,2181,2236,2139,1745187643358190094
10956667,2076,2172,2252,2187,1745187643358190094
10957667,2039,2164,2259,2208,1745187643358190094
10958667,2003,2157,2267,2200,1745187643358190094
10959667,1975,2148,2275,2151,1745187643358190094
10960667,1948,2142,2285,2059,1745187643358190094
10961667,1928,2134,2297,1937,1745187643358190094
10962667,1912,2128,2301,1813,1745187643358190094
10963668,1902,2107,2290,1717,1745187643358190094
10964667,1897,2109,2292,1675,1745187643358190094
10965667,1899,2096,2275,1657,1745187643358190094
10966668,1897,2080,2257,1664,1745187643358190094
10967668,1900,2069,2242,1730,1745187643358190094
10968668,1949,2110,2234,1741,1745187643358190094
10969668,1896,2049,2240,1814,1745187643358190094
10970668,1907,2040,2246,1878,1745187643358190094
10971668,1909,2025,2253,1929,1745187643358190094
10972668,1903,2006,2254,1941,1745187643358190094
10973668,1869,1994,2272,1903,1745187643358190094
10974668,1832,1985,2283,1824,1745187643358190094
10975668,1790,1979,2299,1745,1745187643358190094
10976668,1746,1977,2313,1707,1745187643358190094
10977668,1705,1974,2326,1722,1745187643358190094
10978669,1670,1977,2341,1802,1745187643358190094
10979669,1635,1983,2372,1921,1745187643358190094
10980669,1601,1995,2414,2036,1745187643358190094
10981669,1565,2006,2461,2113,1745187643358190094
10982669,1535,2015,2500,2143,1745187643358190094
10983669,1514,2014,2530,2131,1745187643358190094
10984669,1508,2008,2553,2085,1745187643358190094
10985669,1523,1996,2564,2021,1745187643358190094
10986669,1545,1977,2576,1952,1745187643358190094
10987669,1582,1957,2589,1892,1745187643358190094
10988669,1621,1938,2598,1846,1745187643358190094
10989669,1659,1922,2608,1823,1745187643358190094
10990670,1696,1907,2613,1822,1745187643358190094
10991670,1728,1896,2613,1840,1745187643358190094
10992670,1747,1887,2608,1861,1745187643358190094
10993670,1752,1879,2596,1873,1745187643358190094
10994670,1747,1872,2576,1891,1745187643358190094
10995670,1733,1867,2559,1912,1745187643358190094
10996670,1713,1862,2533,1914,1745187643358190094
10997670,1689,1860,2508,1886,1745187643358190094
10998670,1670,1854,2484,1837,1745187643358190094
10999670,1653,1851,2461,1787,1745187643358190094
11000670,1644,1840,2437,1750,1745187643358190094
11001670,1640,1840,2421,1730,1745187643358190094
11002671,1641,1837,2410,1705,1745187643358190094
11003671,1646,1837,2399,1684,1745187643358190094
11004671,1657,1843,2384,1678,1745187643358190094
11005671,1673,1850,2364,1692,1745187643358190094
11006671,1693,1856,2344,1732,1745187643358190094
11007671,1718,1857,2322,1802,1745187643418340066
11008671,1746,1856,2308,1898,1745187643418340066
11009671,1772,1853,2299,1994,1745187643418340066
11010671,1790,1856,2296,2059,1745187643418340066
11011671,1804,1861,2290,2057,1745187643418340066
11012671,1816,1866,2280,1997,1745187643418340066
11013671,1825,1868,2268,1925,1745187643418340066
11014672,1832,1864,2254,1866,1745187643418340066
11015672,1835,1858,2236,1844,1745187643418340066
11016672,1837,1857,2215,1865,1745187643418340066
11017672,1834,1860,2201,1913,1745187643418340066
11018672,1828,1867,2189,1957,1745187643418340066
11019672,1821,1882,2184,1969,1745187643418340066
11020672,1813,1894,2177,1927,1745187643418340066
11021673,1808,1900,2162,1857,1745187643418340066
11022672,1808,1892,2152,1812,1745187643418340066
11023672,1812,1880,2139,1802,1745187643418340066
11024672,1818,1864,2132,1791,1745187643418340066
11025672,1829,1848,2124,1762,1745187643418340066
11026673,1835,1826,2138,1787,1745187643418340066
11027673,1894,1830,2129,1730,1745187643418340066
11028673,1850,1810,2133,1773,1745187643418340066
11029673,1854,1806,2129,1818,1745187643418340066
11030673,1853,1802,2128,1876,1745187643418340066
11031673,1848,1803,2157,1921,1745187643418340066
11032673,1836,1807,2145,1945,1745187643418340066
11033673,1830,1806,2144,1930,1745187643418340066
11034673,1825,1806,2132,1921,1745187643418340066
11035673,1818,1804,2116,1937,1745187643418340066
11036673,1809,1805,2099,1998,1745187643418340066
11037673,1800,1808,2089,2107,1745187643418340066
11038674,1786,1817,2085,2236,1745187643418340066
11039674,1776,1829,2089,2354,1745187643418340066
11040674,1770,1836,2094,2436,1745187643418340066
11041674,1768,1852,2097,2469,1745187643418340066
11042674,1770,1864,2096,2457,1745187643418340066
11043674,1772,1864,2088,2408,1745187643418340066
11044674,1774,1868,2082,2354,1745187643418340066
11045674,1781,1872,2080,2306,1745187643418340066
11046674,1790,1876,2080,2260,1745187643418340066
11047674,1805,1880,2076,2213,1745187643418340066
11048674,1827,1884,2070,2169,1745187643418340066
11049674,1852,1889,2064,2137,1745187643418340066
11050675,1874,1896,2057,2101,1745187643418340066
11051675,1890,1901,2051,2054,1745187643418340066
11052675,1902,1908,2049,1989,1745187643418340066
11053675,1904,1918,2044,1918,1745187643418340066
11054675,1899,1924,2042,1848,1745187643418340066
11055675,1890,1930,2043,1798,1745187643418340066
11056675,1876,1931,2042,1758,1745187643418340066
11057675,1862,1932,2042,1725,1745187643418340066
11058675,1850,1934,2044,1711,1745187643418340066
11059675,1842,1937,2058,1715,1745187643418340066
11060675,1843,1942,2077,1744,1745187643418340066
11061675,1851,1947,2097,1801,1745187643418340066
11062676,1867,1954,2114,1890,1745187643418340066
11063676,1888,1960,2136,2002,1745187643418340066
11064676,1912,1966,2162,2125,1745187643418340066
11065676,1938,1973,2190,2232,1745187643476820000
11066676,1964,1979,2213,2287,1745187643476820000
11067676,1986,1984,2227,2293,1745187643476820000
11068676,2006,1987,2228,2258,1745187643476820000
11069676,2019,1987,2222,2210,1745187643476820000
11070676,2028,1983,2212,2168,1745187643476820000
11071676,2034,1974,2201,2144,1745187643476820000
11072676,2036,1963,2192,2148,1745187643476820000
11073676,2037,1958,2185,2185,1745187643476820000
11074677,2038,1955,2184,2220,1745187643476820000
11075677,2039,1956,2183,2240,1745187643476820000
11076677,2040,1960,2177,2213,1745187643476820000
11077677,2041,1970,2164,2168,1745187643476820000
11078677,2041,1988,2144,2126,1745187643476820000
11079677,2040,2010,2123,2091,1745187643476820000
11080677,2040,2028,2094,2062,1745187643476820000
11081677,2048,2037,2066,2049,1745187643476820000
11082677,2054,2037,2043,2040,1745187643476820000
11083677,2052,2059,2021,2054,1745187643476820000
11084677,2077,2022,1995,2085,1745187643476820000
11085677,2091,2038,1974,2112,1745187643476820000
11086678,2110,2042,1945,2115,1745187643476820000
11087678,2188,2092,1913,2072,1745187643476820000
11088678,2133,2029,1883,2060,1745187643476820000
11089678,2160,2025,1864,2059,1745187643476820000
11090678,2173,2008,1848,2082,1745187643476820000
11091678,2183,2001,1855,2122,1745187643476820000
11092678,2184,1982,1829,2179,1745187643476820000
11093678,2193,1966,1834,2201,1745187643476820000
11094678,2197,1952,1846,2157,1745187643476820000
11095678,2198,1930,1864,2079,1745187643476820000
11096678,2198,1901,1886,2009,1745187643476820000
11097678,2196,1871,1909,1971,1745187643476820000
11098679,2194,1838,1939,1981,1745187643476820000
11099679,2193,1804,1971,2064,1745187643476820000
11100679,2194,1776,2006,2180,1745187643476820000
11101679,2196,1745,2072,2283,1745187643476820000
11102679,2200,1733,2088,2370,1745187643476820000
11103679,2213,1724,2126,2396,1745187643476820000
11104679,2227,1721,2165,2365,1745187643476820000
11105679,2236,1726,2209,2294,1745187643476820000
11106679,2249,1741,2257,2214,1745187643476820000
11107679,2262,1763,2299,2131,1745187643476820000
11108679,2278,1792,2336,2029,1745187643476820000
11109679,2289,1822,2367,1864,1745187643476820000
11110680,2296,1855,2390,1603,1745187643476820000
11111680,2296,1889,2409,1335,1745187643476820000
11112680,2288,1923,2421,1140,1745187643476820000
11113680,2276,1956,2429,1078,1745187643476820000
11114680,2262,1986,2442,1175,1745187643476820000
11115680,2246,2013,2458,1434,1745187643476820000
11116680,2232,2041,2491,1786,1745187643476820000
11117680,2222,2070,2539,2169,1745187643476820000
11118680,2216,2113,2591,2491,1745187643476820000
11119680,2211,2158,2639,2671,1745187643476820000
11120680,2209,2204,2684,2772,1745187643476820000
11121680,2206,2252,2726,2809,1745187643476820000
11122681,2213,2300,2768,2793,1745187643476820000
11123681,2221,2337,2803,2731,1745187643538795163
11124681,2232,2368,2812,2643,1745187643538795163
11125681,2248,2396,2818,2549,1745187643538795163
11126681,2267,2415,2803,2450,1745187643538795163
11127681,2284,2433,2778,2369,1745187643538795163
11128681,2301,2454,2739,2294,1745187643538795163
11129681,2314,2475,2691,2237,1745187643538795163
11130681,2321,2502,2634,2198,1745187643538795163
11131681,2322,2534,2573,2161,1745187643538795163
11132681,2320,2559,2522,2106,1745187643538795163
11133681,2309,2592,2465,2040,1745187643538795163
11134682,2297,2622,2410,1988,1745187643538795163
11135682,2280,2652,2355,1975,1745187643538795163
11136682,2259,2680,2306,2000,1745187643538795163
11137682,2240,2702,2265,2050,1745187643538795163
11138683,2212,2722,2224,2101,1745187643538795163
11139682,2205,2737,2182,2142,1745187643538795163
11140682,2197,2743,2132,2143,1745187643538795163
11141682,2191,2739,2071,2128,1745187643538795163
11142682,2193,2738,2004,2116,1745187643538795163
11143682,2200,2733,1945,2110,1745187643538795163
11144682,2205,2725,1897,2104,1745187643538795163
11145682,2212,2714,1908,2139,1745187643538795163
11146683,2217,2685,1830,2049,1745187643538795163
11147683,2220,2693,1837,1986,1745187643538795163
11148683,2230,2692,1838,1923,1745187643538795163
11149683,2240,2685,1836,1883,1745187643538795163
11150683,2242,2669,1819,1884,1745187643538795163
11151683,2236,2674,1812,1916,1745187643538795163
11152683,2233,2668,1803,1975,1745187643538795163
11153683,2220,2660,1794,2034,1745187643538795163
11154683,2199,2649,1790,2086,1745187643538795163
11155683,2169,2638,1788,2109,1745187643538795163
11156683,2129,2623,1785,2094,1745187643538795163
11157683,2086,2605,1778,2034,1745187643538795163
11158684,2040,2588,1771,1958,1745187643538795163
11159684,1993,2573,1766,1903,1745187643538795163
11160684,1947,2559,1764,1888,1745187643538795163
11161684,1912,2550,1764,1924,1745187643538795163
11162684,1892,2531,1757,1986,1745187643538795163
11163684,1885,2513,1746,2072,1745187643538795163
11164684,1890,2489,1734,2149,1745187643538795163
11165684,1910,2460,1723,2176,1745187643538795163
11166684,1932,2430,1718,2149,1745187643538795163
11167684,1960,2398,1716,2080,1745187643538795163
11168684,1987,2368,1721,1996,1745187643538795163
11169684,2011,2337,1731,1922,1745187643538795163
11170685,2030,2307,1744,1867,1745187643538795163
11171685,2042,2278,1765,1815,1745187643538795163
11172685,2050,2250,1805,1774,1745187643538795163
11173685,2049,2221,1862,1770,1745187643538795163
11174685,2036,2195,1933,1815,1745187643538795163
11175685,2023,2176,2011,1899,1745187643538795163
11176685,2008,2160,2088,1962,1745187643538795163
11177685,1992,2147,2155,1924,1745187643538795163
11178685,1979,2133,2210,1778,1745187643538795163
11179685,1966,2119,2248,1595,1745187643538795163
11180685,1955,2100,2273,1440,1745187643538795163
11181685,1946,2082,2285,1355,1745187643598779459
11182686,1934,2059,2291,1402,1745187643598779459
11183686,1932,2042,2300,1581,1745187643598779459
11184686,1932,2041,2310,1828,1745187643598779459
11185686,1944,2038,2318,2070,1745187643598779459
11186686,1962,2028,2324,2267,1745187643598779459
11187686,1986,2013,2345,2411,1745187643598779459
11188686,2006,1997,2382,2481,1745187643598779459
11189686,2022,1987,2422,2493,1745187643598779459
11190686,2029,1979,2455,2467,1745187643598779459
11191686,2029,1969,2475,2421,1745187643598779459
11192686,2025,1960,2475,2347,1745187643598779459
11193686,2018,1945,2463,2220,1745187643598779459
11194687,2005,1930,2440,2064,1745187643598779459
11195687,1993,1918,2413,1924,1745187643598779459
11196687,1978,1913,2384,1822,1745187643598779459
11197688,1954,1909,2344,1772,1745187643598779459
11198687,1933,1900,2306,1791,1745187643598779459
11199688,1916,1896,2269,1872,1745187643598779459
11200687,1905,1892,2230,1979,1745187643598779459
11201688,1901,1889,2184,2082,1745187643598779459
11202687,1905,1881,2128,2191,1745187643598779459
11203687,1913,1873,2121,2372,1745187643598779459
11204687,1921,1850,1980,2424,1745187643598779459
11205687,1932,1851,1906,2498,1745187643598779459
11206688,1953,1844,1798,2522,1745187643598779459
11207688,1973,1855,1705,2564,1745187643598779459
11208688,1982,1860,1535,2532,1745187643598779459
11209688,2037,1834,1322,2416,1745187643598779459
11210688,1984,1781,1150,2404,1745187643598779459
11211688,1996,1776,992,2365,1745187643598779459
11212688,1997,1765,863,2327,1745187643598779459
11213688,1990,1760,776,2329,1745187643598779459
11214688,2036,1790,721,2305,1745187643598779459
11215688,1960,1730,691,2236,1745187643598779459
11216688,1938,1738,732,2253,1745187643598779459
11217688,1923,1747,806,2264,1745187643598779459
11218689,1894,1747,918,2234,1745187643598779459
11219689,1880,1757,1010,2208,1745187643598779459
11220689,1882,1764,1126,2183,1745187643598779459
11221689,1882,1768,1231,2173,1745187643598779459
11222689,1886,1770,1325,2157,1745187643598779459
11223689,1896,1804,1404,2120,1745187643598779459
11224689,1907,1769,1482,2078,1745187643598779459
11225689,1922,1770,1537,2012,1745187643598779459
11226689,1942,1769,1590,1955,1745187643598779459
11227689,1964,1769,1635,1932,1745187643598779459
11228689,1985,1766,1675,1949,1745187643598779459
11229689,1998,1766,1704,1987,1745187643598779459
11230690,2005,1766,1736,2006,1745187643598779459
11231690,2006,1769,1770,1993,1745187643598779459
11232690,2003,1771,1796,1958,1745187643598779459
11233690,1995,1772,1812,1945,1745187643598779459
11234690,1985,1776,1827,1983,1745187643598779459
11235690,1969,1784,1838,2091,1745187643598779459
11236690,1950,1798,1857,2221,1745187643598779459
11237690,1932,1820,1880,2325,1745187643598779459
11238690,1916,1837,1900,2386,1745187643598779459
11239690,1905,1853,1910,2395,1745187643651626581
11240690,1901,1865,1911,2336,1745187643651626581
11241690,1902,1874,1948,2232,1745187643651626581
11242691,1947,1916,1946,2171,1745187643651626581
11243691,1952,1916,1949,2092,1745187643651626581
11244691,1957,1919,1957,2073,1745187643651626581
11245691,1974,1916,1925,2076,1745187643651626581
11246691,1952,1885,1942,2180,1745187643651626581
11247691,1997,1896,1950,2288,1745187643651626581
11248691,2029,1899,1956,2388,1745187643651626581
11249691,2060,1902,1956,2459,1745187643651626581
11250691,2081,1908,1951,2481,1745187643651626581
11251691,2096,1915,1940,2445,1745187643651626581
11252691,2102,1925,1918,2368,1745187643651626581
11253691,2104,1932,1888,2281,1745187643651626581
11254692,2105,1937,1862,2207,1745187643651626581
11255692,2099,1940,1834,2165,1745187643651626581
11256692,2092,1944,1806,2161,1745187643651626581
11257692,2084,1947,1781,2182,1745187643651626581
11258692,2072,1952,1754,2205,1745187643651626581
11259692,2073,1957,1733,2200,1745187643651626581
11260693,2075,1963,1712,2173,1745187643651626581
11261692,2084,1968,1682,2140,1745187643651626581
11262692,2097,1971,1644,2098,1745187643651626581
11263692,2114,1977,1598,2037,1745187643651626581
11264692,2130,1977,1547,1949,1745187643651626581
11265692,2147,1978,1505,1848,1745187643651626581
11266693,2171,1977,1468,1768,1745187643651626581
11267693,2192,2010,1474,1758,1745187643651626581
11268693,2210,1957,1406,1707,1745187643651626581
11269693,2216,1968,1418,1777,1745187643651626581
11270693,2227,1973,1450,1894,1745187643651626581
11271693,2235,1984,1498,2012,1745187643651626581
11272693,2244,1996,1526,2090,1745187643651626581
11273693,2241,2006,1548,2126,1745187643651626581
11274693,2239,2017,1555,2138,1745187643651626581
11275693,2237,2031,1563,2130,1745187643651626581
11276693,2229,2048,1568,2091,1745187643651626581
11277693,2222,2062,1561,2033,1745187643651626581
11278694,2217,2069,1542,1997,1745187643651626581
11279694,2214,2076,1525,2008,1745187643651626581
11280694,2218,2081,1498,2051,1745187643651626581
11281694,2227,2084,1466,2100,1745187643651626581
11282694,2238,2085,1430,2144,1745187643651626581
11283694,2250,2086,1394,2186,1745187643651626581
11284694,2263,2088,1357,2225,1745187643651626581
11285694,2278,2089,1328,2248,1745187643651626581
11286694,2294,2090,1317,2273,1745187643651626581
11287694,2309,2093,1329,2301,1745187643651626581
11288694,2324,2092,1368,2297,1745187643651626581
11289694,2332,2094,1411,2255,1745187643651626581
11290695,2337,2094,1446,2176,1745187643651626581
11291695,2337,2093,1466,2077,1745187643651626581
11292695,2332,2092,1473,1985,1745187643651626581
11293695,2324,2093,1463,1922,1745187643651626581
11294695,2318,2093,1449,1910,1745187643651626581
11295695,2297,2101,1436,1941,1745187643651626581
11296697,2282,2112,1424,1976,1745187643651626581
11297695,2264,2122,1410,2004,1745187643707210656
11298697,2258,2128,1400,2011,1745187643707210656
11299695,2254,2134,1400,2003,1745187643707210656
11300695,2257,2138,1400,2001,1745187643707210656
11301695,2264,2147,1408,2041,1745187643707210656
11302696,2276,2153,1435,2125,1745187643707210656
11303696,2293,2158,1476,2203,1745187643707210656
11304696,2313,2166,1521,2254,1745187643707210656
11305696,2337,2174,1549,2264,1745187643707210656
11306696,2358,2180,1571,2237,1745187643707210656
11307696,2380,2184,1582,2206,1745187643707210656
11308696,2402,2179,1580,2192,1745187643707210656
11309696,2416,2173,1566,2196,1745187643707210656
11310696,2427,2164,1545,2219,1745187643707210656
11311696,2432,2157,1534,2254,1745187643707210656
11312696,2429,2153,1525,2292,1745187643707210656
11313696,2424,2154,1523,2317,1745187643707210656
11314697,2418,2154,1514,2332,1745187643707210656
11315697,2416,2153,1496,2344,1745187643707210656
11316697,2409,2153,1461,2337,1745187643707210656
11317697,2405,2150,1422,2302,1745187643707210656
11318697,2403,2145,1373,2241,1745187643707210656
11319697,2402,2140,1329,2172,1745187643707210656
11320697,2408,2193,1337,2133,1745187643707210656
11321697,2403,2110,1310,2122,1745187643707210656
11322697,2420,2121,1367,2157,1745187643707210656
11323697,2436,2124,1464,2208,1745187643707210656
11324697,2451,2132,1563,2253,1745187643707210656
11325697,2485,2130,1649,2267,1745187643707210656
11326698,2494,2136,1715,2258,1745187643707210656
11327698,2520,2136,1749,2219,1745187643707210656
11328698,2542,2124,1774,2177,1745187643707210656
11329698,2556,2120,1790,2130,1745187643707210656
11330698,2559,2107,1802,2094,1745187643707210656
11331698,2559,2097,1800,2090,1745187643707210656
11332698,2557,2091,1822,2096,1745187643707210656
11333698,2547,2092,1846,2092,1745187643707210656
11334698,2538,2095,1866,2062,1745187643707210656
11335698,2526,2093,1882,2028,1745187643707210656
11336698,2515,2096,1890,2012,1745187643707210656
11337698,2501,2100,1889,2026,1745187643707210656
11338699,2498,2105,1877,2070,1745187643707210656
11339699,2494,2113,1858,2125,1745187643707210656
11340699,2502,2112,1828,2160,1745187643707210656
11341699,2514,2107,1795,2162,1745187643707210656
11342699,2532,2096,1760,2120,1745187643707210656
11343699,2558,2080,1724,2003,1745187643707210656
11344699,2571,2058,1690,1840,1745187643707210656
11345699,2593,2034,1659,1697,1745187643707210656
11346699,2613,2016,1641,1646,1745187643707210656
11347699,2629,2008,1647,1702,1745187643707210656
11348699,2639,2005,1676,1814,1745187643707210656
11349699,2642,2009,1724,1916,1745187643707210656
11350700,2636,2020,1782,1960,1745187643707210656
11351700,2629,2031,1843,1932,1745187643707210656
11352700,2618,2043,1899,1866,1745187643707210656
11353700,2605,2056,1945,1811,1745187643707210656
11354700,2590,2067,1990,1811,1745187643707210656
11355700,2576,2081,2027,1874,1745187643767983903
11356700,2559,2094,2059,1989,1745187643767983903
11357700,2544,2108,2083,2123,1745187643767983903
11358700,2524,2122,2107,2235,1745187643767983903
11359700,2507,2138,2129,2286,1745187643767983903
11360700,2496,2155,2142,2267,1745187643767983903
11361700,2491,2169,2143,2192,1745187643767983903
11362701,2492,2182,2139,2102,1745187643767983903
11363701,2494,2192,2137,2021,1745187643767983903
11364701,2498,2203,2130,1960,1745187643767983903
11365701,2505,2212,2118,1914,1745187643767983903
11366701,2511,2218,2093,1883,1745187643767983903
11367701,2519,2220,2056,1874,1745187643767983903
11368701,2521,2221,2008,1885,1745187643767983903
11369701,2515,2221,1960,1907,1745187643767983903
11370701,2502,2221,1918,1925,1745187643767983903
11371701,2481,2224,1894,1920,1745187643767983903
11372701,2452,2225,1888,1841,1745187643767983903
11373701,2421,2227,1897,1717,1745187643767983903
11374702,2389,2228,1915,1590,1745187643767983903
11375702,2356,2229,1921,1538,1745187643767983903
11376702,2388,2241,1899,1492,1745187643767983903
11377702,2277,2211,1876,1598,1745187643767983903
11378702,2246,2205,1866,1762,1745187643767983903
11379702,2213,2226,1878,1904,1745187643767983903
11380702,2186,2252,1913,1988,1745187643767983903
11381702,2161,2264,1970,1952,1745187643767983903
11382702,2156,2294,2038,1877,1745187643767983903
11383702,2142,2309,2126,1779,1745187643767983903
11384702,2130,2323,2232,1699,1745187643767983903
11385702,2115,2326,2345,1638,1745187643767983903
11386703,2108,2325,2453,1581,1745187643767983903
11387703,2096,2317,2524,1526,1745187643767983903
11388703,2084,2301,2559,1472,1745187643767983903
11389703,2065,2277,2559,1431,1745187643767983903
11390703,2037,2256,2547,1402,1745187643767983903
11391703,2009,2243,2516,1386,1745187643767983903
11392703,1970,2231,2480,1384,1745187643767983903
11393703,1933,2214,2453,1394,1745187643767983903
11394703,1894,2197,2440,1434,1745187643767983903
11395703,1856,2185,2437,1481,1745187643767983903
11396703,1819,2179,2436,1504,1745187643767983903
11397703,1782,2189,2428,1521,1745187643767983903
11398704,1753,2202,2430,1540,1745187643767983903
11399704,1723,2221,2429,1596,1745187643767983903
11400704,1700,2245,2427,1668,1745187643767983903
11401704,1683,2260,2428,1755,1745187643767983903
11402704,1674,2258,2428,1818,1745187643767983903
11403704,1672,2250,2427,1824,1745187643767983903
11404704,1672,2225,2410,1812,1745187643767983903
11405704,1667,2184,2371,1858,1745187643767983903
11406704,1664,2133,2323,1968,1745187643767983903
11407704,1656,2085,2273,2099,1745187643767983903
11408704,1644,2034,2222,2228,1745187643767983903
11409704,1628,1990,2178,2340,1745187643767983903
11410705,1612,1954,2137,2430,1745187643767983903
11411705,1596,1922,2078,2494,1745187643767983903
11412705,1578,1898,2004,2530,1745187643767983903
11413705,1555,1882,1925,2559,1745187643823181472
11414705,1534,1875,1841,2579,1745187643823181472
11415705,1496,1873,1772,2612,1745187643823181472
11416705,1457,1878,1755,2635,1745187643823181472
11417705,1421,1890,1821,2616,1745187643823181472
11418705,1392,1901,1979,2531,1745187643823181472
11419705,1365,1913,2204,2375,1745187643823181472
11420705,1344,1926,2453,2195,1745187643823181472
11421705,1323,1936,2683,2014,1745187643823181472
11422706,1300,1940,2877,1844,1745187643823181472
11423706,1278,1936,3016,1684,1745187643823181472
11424706,1258,1923,3080,1575,1745187643823181472
11425706,1238,1904,3076,1535,1745187643823181472
11426706,1224,1886,3026,1549,1745187643823181472
11427706,1214,1870,2960,1621,1745187643823181472
11428706,1211,1854,2892,1710,1745187643823181472
11429706,1213,1836,2825,1774,1745187643823181472
11430706,1214,1817,2757,1804,1745187643823181472
11431706,1211,1795,2679,1806,1745187643823181472
11432706,1204,1779,2609,1810,1745187643823181472
11433706,1194,1785,2597,1846,1745187643823181472
11434707,1172,1762,2513,1922,1745187643823181472
11435707,1176,1813,2540,2008,1745187643823181472
11436707,1132,1764,2481,2146,1745187643823181472
11437707,1146,1793,2347,2181,1745187643823181472
11438707,1102,1809,2275,2301,1745187643823181472
11439707,1100,1834,2174,2420,1745187643823181472
11440707,1105,1846,2066,2532,1745187643823181472
11441707,1115,1856,1975,2579,1745187643823181472
11442707,1131,1840,1923,2591,1745187643823181472
11443707,1148,1828,1940,2518,1745187643823181472
11444707,1166,1814,2051,2340,1745187643823181472
11445707,1180,1799,2229,2088,1745187643823181472
11446708,1196,1785,2430,1813,1745187643823181472
11447708,1208,1766,2606,1514,1745187643823181472
11448708,1220,1744,2753,1211,1745187643823181472
11449708,1224,1721,2853,949,1745187643823181472
11450708,1227,1708,2927,750,1745187643823181472
11451708,1221,1706,2976,601,1745187643823181472
11452708,1218,1722,2993,542,1745187643823181472
11453708,1211,1746,2985,589,1745187643823181472
11454708,1205,1757,2952,732,1745187643823181472
11455708,1201,1747,2910,958,1745187643823181472
11456708,1196,1727,2864,1233,1745187643823181472
11457708,1195,1707,2816,1466,1745187643823181472
11458709,1197,1683,2761,1599,1745187643823181472
11459709,1203,1673,2712,1667,1745187643823181472
11460709,1210,1701,2662,1690,1745187643823181472
11461709,1219,1763,2609,1715,1745187643823181472
11462709,1232,1812,2560,1812,1745187643823181472
11463709,1242,1838,2539,2000,1745187643823181472
11464709,1260,1830,2526,2212,1745187643823181472
11465709,1276,1802,2536,2390,1745187643823181472
11466709,1297,1775,2544,2516,1745187643823181472
11467709,1316,1763,2537,2571,1745187643823181472
11468709,1333,1750,2509,2561,1745187643823181472
11469709,1342,1730,2457,2496,1745187643823181472
11470710,1352,1702,2384,2425,1745187643823181472
11471710,1359,1668,2301,2459,1745187643892405058
11472710,1362,1631,2212,2584,1745187643892405058
11473710,1362,1597,2125,2715,1745187643892405058
11474710,1359,1570,2061,2804,1745187643892405058
11475710,1355,1556,2013,2812,1745187643892405058
11476710,1353,1557,1993,2698,1745187643892405058
11477710,1352,1557,2010,2512,1745187643892405058
11478710,1352,1540,2076,2285,1745187643892405058
11479710,1354,1521,2177,2093,1745187643892405058
11480710,1375,1491,2304,1979,1745187643892405058
11481710,1397,1460,2443,1956,1745187643892405058
11482711,1424,1444,2559,1994,1745187643892405058
11483711,1456,1467,2645,2053,1745187643892405058
11484711,1488,1521,2697,2089,1745187643892405058
11485711,1518,1535,2716,2101,1745187643892405058
11486711,1535,1496,2704,2102,1745187643892405058
11487711,1548,1409,2680,2126,1745187643892405058
11488711,1560,1349,2657,2166,1745187643892405058
11489711,1568,1435,2649,2174,1745187643892405058
11490711,1581,1668,2657,2124,1745187643892405058
11491713,1597,1881,2660,2095,1745187643892405058
11492711,1657,1945,2644,1921,1745187643892405058
11493711,1618,1864,2610,1878,1745187643892405058
11494712,1640,1744,2561,1844,1745187643892405058
11495712,1647,1672,2502,1810,1745187643892405058
11496712,1651,1684,2432,1813,1745187643892405058
11497712,1654,1736,2360,1800,1745187643892405058
11498712,1659,1784,2308,1852,1745187643892405058
11499712,1665,1792,2270,2001,1745187643892405058
11500712,1675,1777,2252,2201,1745187643892405058
11501712,1690,1744,2251,2350,1745187643892405058
11502712,1710,1699,2259,2413,1745187643892405058
11503712,1727,1656,2275,2395,1745187643892405058
11504712,1746,1653,2296,2305,1745187643892405058
11505712,1765,1710,2321,2165,1745187643892405058
11506713,1785,1790,2352,2021,1745187643892405058
11507713,1806,1865,2385,1910,1745187643892405058
11508713,1817,1921,2415,1833,1745187643892405058
11509713,1821,1965,2432,1776,1745187643892405058
11510713,1819,2002,2434,1738,1745187643892405058
11511713,1814,2029,2429,1730,1745187643892405058
11512713,1810,2077,2412,1751,1745187643892405058
11513713,1808,2146,2388,1786,1745187643892405058
11514713,1806,2211,2362,1808,1745187643892405058
11515713,1804,2251,2344,1818,1745187643892405058
11516713,1800,2260,2342,1834,1745187643892405058
11517713,1797,2246,2351,1890,1745187643892405058
11518714,1795,2238,2369,1986,1745187643892405058
11519714,1809,2259,2385,2094,1745187643892405058
11520714,1827,2287,2401,2153,1745187643892405058
11521714,1848,2305,2405,2131,1745187643892405058
11522714,1868,2314,2394,2052,1745187643892405058
11523714,1890,2320,2364,1974,1745187643892405058
11524714,1916,2323,2304,1952,1745187643892405058
11525714,1946,2326,2227,1976,1745187643892405058
11526714,1977,2327,2143,1994,1745187643892405058
11527714,2010,2325,2058,1972,1745187643892405058
11528714,2038,2314,1980,1941,1745187643892405058
11529714,2062,2297,1930,1920,1745187643944345417
11530715,2073,2276,1913,1916,1745187643944345417
11531715,2077,2253,1946,1924,1745187643944345417
11532715,2078,2222,2029,1933,1745187643944345417
11533715,2073,2195,2149,1963,1745187643944345417
11534715,2067,2179,2277,2060,1745187643944345417
11535715,2056,2179,2393,2173,1745187643944345417
11536715,2048,2204,2483,2225,1745187643944345417
11537715,2043,2234,2532,2200,1745187643944345417
11538715,2051,2256,2536,2158,1745187643944345417
11539715,2063,2265,2500,2189,1745187643944345417
11540715,2082,2262,2436,2301,1745187643944345417
11541715,2105,2249,2368,2417,1745187643944345417
11542716,2133,2229,2316,2484,1745187643944345417
11543716,2166,2211,2289,2445,1745187643944345417
11544716,2198,2192,2289,2309,1745187643944345417
11545716,2227,2171,2314,2129,1745187643944345417
11546716,2252,2149,2345,1976,1745187643944345417
11547720,2268,2126,2366,1923,1745187643944345417
11548716,2278,2121,2440,1953,1745187643944345417
11549716,2254,2094,2393,2028,1745187643944345417
11550716,2272,2078,2378,2073,1745187643944345417
11551716,2256,2065,2345,2093,1745187643944345417
11552716,2226,2048,2306,2098,1745187643944345417
11553716,2210,2038,2262,2108,1745187643944345417
11554717,2188,2031,2223,2122,1745187643944345417
11555717,2162,2027,2185,2145,1745187643944345417
11556717,2139,2028,2150,2164,1745187643944345417
11557717,2121,2027,2112,2124,1745187643944345417
11558717,2104,2014,2063,1986,1745187643944345417
11559717,2094,1995,2009,1803,1745187643944345417
11560717,2086,1972,1955,1656,1745187643944345417
11561717,2144,2001,1907,1605,1745187643944345417
11562717,2065,1926,1867,1711,1745187643944345417
11563717,2080,1923,1867,1873,1745187643944345417
11564717,2088,1923,1882,1969,1745187643944345417
11565717,2101,1926,1900,1962,1745187643944345417
11566718,2106,1934,1913,1873,1745187643944345417
11567718,2116,1957,1913,1795,1745187643944345417
11568718,2114,1962,1912,1731,1745187643944345417
11569718,2103,1963,1920,1694,1745187643944345417
11570718,2086,1964,1931,1712,1745187643944345417
11571718,2060,1963,1954,1778,1745187643944345417
11572718,2036,1958,1997,1873,1745187643944345417
11573718,2012,1954,2054,1974,1745187643944345417
11574718,1992,1949,2113,2073,1745187643944345417
11575718,1973,1944,2158,2153,1745187643944345417
11576718,1955,1934,2186,2197,1745187643944345417
11577718,1939,1931,2189,2195,1745187643944345417
11578719,1928,1926,2175,2154,1745187643944345417
11579719,1922,1923,2134,2086,1745187643944345417
11580719,1920,1912,2077,2010,1745187643944345417
11581719,1926,1901,2012,1979,1745187643944345417
11582719,1945,1888,1964,2041,1745187643944345417
11583719,1965,1876,1932,2160,1745187643944345417
11584719,1987,1873,1937,2253,1745187643944345417
11585719,2008,1871,1977,2254,1745187643944345417
11586719,2023,1866,2031,2153,1745187643944345417
11587719,2035,1873,2081,2015,1745187644009887266
11588719,2043,1894,2108,1893,1745187644009887266
11589719,2040,1913,2108,1803,1745187644009887266
11590720,2030,1934,2084,1752,1745187644009887266
11591720,2012,1960,2048,1734,1745187644009887266
11592720,1996,1990,2017,1791,1745187644009887266
11593720,1981,2025,2009,1926,1745187644009887266
11594720,1976,2053,2024,2084,1745187644009887266
11595720,1969,2067,2043,2203,1745187644009887266
11596720,1960,2067,2070,2280,1745187644009887266
11597720,1947,2061,2099,2331,1745187644009887266
11598720,1940,2053,2126,2360,1745187644009887266
11599720,1940,2042,2151,2366,1745187644009887266
11600720,1949,2033,2167,2354,1745187644009887266
11601720,1961,2030,2167,2322,1745187644009887266
11602721,1981,2027,2140,2244,1745187644009887266
11603721,2007,2030,2088,2133,1745187644009887266
11604721,2031,2027,2023,2025,1745187644009887266
11605721,2058,2027,1973,1941,1745187644009887266
11606721,2078,2020,1945,1884,1745187644009887266
11607721,2093,2020,1944,1833,1745187644009887266
11608721,2104,2021,1952,1764,1745187644009887266
11609721,2112,2025,1962,1692,1745187644009887266
11610723,2120,2021,1962,1678,1745187644009887266
11611721,2129,2021,1964,1785,1745187644009887266
11612722,2137,2027,1974,2014,1745187644009887266
11613721,2179,2098,1997,2282,1745187644009887266
11614722,2123,2058,2020,2515,1745187644009887266
11615722,2132,2081,2064,2622,1745187644009887266
11616722,2131,2105,2106,2633,1745187644009887266
11617722,2138,2130,2139,2559,1745187644009887266
11618722,2146,2140,2149,2443,1745187644009887266
11619722,2165,2172,2147,2302,1745187644009887266
11620722,2185,2193,2137,2162,1745187644009887266
11621722,2213,2212,2122,2048,1745187644009887266
11622722,2242,2222,2106,1990,1745187644009887266
11623722,2276,2232,2092,1992,1745187644009887266
11624722,2309,2242,2080,2033,1745187644009887266
11625722,2344,2250,2068,2073,1745187644009887266
11626723,2373,2254,2053,2100,1745187644009887266
11627723,2398,2259,2035,2136,1745187644009887266
11628723,2411,2260,2025,2192,1745187644009887266
11629723,2414,2264,2010,2260,1745187644009887266
11630723,2405,2264,1995,2316,1745187644009887266
11631723,2394,2265,1980,2356,1745187644009887266
11632723,2376,2270,1969,2382,1745187644009887266
11633724,2352,2278,1959,2394,1745187644009887266
11634724,2326,2287,1948,2416,1745187644009887266
11635724,2305,2296,1940,2456,1745187644009887266
11636723,2281,2291,1933,2498,1745187644009887266
11637723,2262,2265,1930,2518,1745187644009887266
11638724,2242,2230,1929,2493,1745187644009887266
11639724,2226,2194,1933,2429,1745187644009887266
11640724,2222,2166,1932,2339,1745187644009887266
11641724,2225,2162,1923,2244,1745187644009887266
11642724,2235,2176,1912,2166,1745187644009887266
11643724,2247,2184,1902,2131,1745187644009887266
11644724,2260,2177,1894,2140,1745187644009887266
11645724,2275,2163,1893,2168,1745187644066943255
11646724,2285,2150,1893,2192,1745187644066943255
11647724,2303,2138,1900,2169,1745187644066943255
11648724,2312,2127,1908,2089,1745187644066943255
11649724,2310,2117,1913,1979,1745187644066943255
11650725,2302,2112,1910,1880,1745187644066943255
11651725,2288,2108,1901,1829,1745187644066943255
11652725,2267,2105,1894,1828,1745187644066943255
11653725,2243,2112,1891,1815,1745187644066943255
11654725,2224,2115,1893,1767,1745187644066943255
11655725,2202,2124,1898,1684,1745187644066943255
11656725,2181,2133,1901,1579,1745187644066943255
11657725,2164,2148,1898,1485,1745187644066943255
11658725,2155,2162,1893,1420,1745187644066943255
11659725,2153,2169,1885,1422,1745187644066943255
11660725,2157,2169,1881,1545,1745187644066943255
11661725,2169,2162,1885,1797,1745187644066943255
11662726,2184,2152,1898,2102,1745187644066943255
11663726,2201,2147,1909,2338,1745187644066943255
11664726,2218,2142,1920,2451,1745187644066943255
11665726,2224,2140,1932,2466,1745187644066943255
11666726,2226,2157,1950,2412,1745187644066943255
11667726,2222,2178,1968,2340,1745187644066943255
11668726,2216,2177,1989,2262,1745187644066943255
11669727,2206,2156,1996,2184,1745187644066943255
11670726,2189,2118,2017,2098,1745187644066943255
11671726,2173,2115,2009,1999,1745187644066943255
11672726,2157,2137,1980,1901,1745187644066943255
11673726,2148,2154,1935,1828,1745187644066943255
11674728,2117,2159,1890,1805,1745187644066943255
11675727,2097,2150,1838,1841,1745187644066943255
11676727,2073,2141,1806,1923,1745187644066943255
11677727,2056,2143,1804,2010,1745187644066943255
11678727,2040,2148,1849,2163,1745187644066943255
11679727,2037,2138,1828,2143,1745187644066943255
11680727,2022,2146,1858,2146,1745187644066943255
11681727,2014,2146,1876,2090,1745187644066943255
11682727,1998,2144,1888,1986,1745187644066943255
11683727,1998,2134,1884,1884,1745187644066943255
11684727,1926,2132,1882,1814,1745187644066943255
11685727,1884,2122,1879,1779,1745187644066943255
11686728,1836,2105,1881,1779,1745187644066943255
11687728,1792,2092,1896,1817,1745187644066943255
11688728,1755,2078,1925,1873,1745187644066943255
11689728,1718,2076,1973,1914,1745187644066943255
11690728,1689,2078,2029,1940,1745187644066943255
11691728,1672,2077,2081,1936,1745187644066943255
11692728,1658,2068,2113,1908,1745187644066943255
11693728,1641,2051,2130,1865,1745187644066943255
11694728,1625,2030,2126,1858,1745187644066943255
11695728,1606,2018,2105,1928,1745187644066943255
11696728,1593,2011,2068,2038,1745187644066943255
11697728,1602,2015,2018,2141,1745187644066943255
11698729,1626,2022,1970,2214,1745187644066943255
11699729,1664,2032,1928,2244,1745187644066943255
11700729,1697,2050,1900,2219,1745187644066943255
11701729,1730,2061,1883,2165,1745187644066943255
11702729,1755,2068,1870,2127,1745187644066943255
11703729,1772,2066,1866,2117,1745187644116035099
11704729,1800,2061,1864,2142,1745187644116035099
11705729,1819,2066,1865,2209,1745187644116035099
11706729,1836,2083,1881,2284,1745187644116035099
11707729,1852,2104,1901,2330,1745187644116035099
11708729,1868,2123,1929,2349,1745187644116035099
11709729,1885,2133,1950,2352,1745187644116035099
11710730,1912,2138,1963,2369,1745187644116035099
11711730,1939,2137,1967,2417,1745187644116035099
11712730,1958,2136,1964,2483,1745187644116035099
11713730,1973,2130,1953,2538,1745187644116035099
11714730,1981,2129,1934,2545,1745187644116035099
11715730,1983,2129,1909,2508,1745187644116035099
11716730,1981,2123,1884,2475,1745187644116035099
11717730,1985,2126,1865,2457,1745187644116035099
11718730,1998,2120,1869,2476,1745187644116035099
11719730,2026,2114,1898,2533,1745187644116035099
11720730,2074,2113,1953,2585,1745187644116035099
11721730,2128,2117,2019,2628,1745187644116035099
11722731,2190,2124,2078,2650,1745187644116035099
11723731,2255,2133,2124,2638,1745187644116035099
11724731,2313,2139,2154,2581,1745187644116035099
11725731,2353,2133,2163,2501,1745187644116035099
11726731,2370,2117,2159,2401,1745187644116035099
11727731,2364,2101,2145,2317,1745187644116035099
11728731,2337,2082,2128,2284,1745187644116035099
11729731,2301,2072,2112,2277,1745187644116035099
11730731,2264,2061,2098,2277,1745187644116035099
11731731,2249,2049,2085,2285,1745187644116035099
11732731,2253,2035,2067,2301,1745187644116035099
11733732,2278,2030,2056,2317,1745187644116035099
11734732,2320,2056,2037,2321,1745187644116035099
11735732,2362,2092,2022,2352,1745187644116035099
11736732,2394,2133,1988,2212,1745187644116035099
11737732,2402,2204,1982,2122,1745187644116035099
11738732,2410,2246,1965,2004,1745187644116035099
11739732,2411,2249,1940,1912,1745187644116035099
11740732,2417,2233,1939,1908,1745187644116035099
11741732,2414,2227,1884,2037,1745187644116035099
11742732,2430,2249,1861,2252,1745187644116035099
11743732,2432,2264,1865,2473,1745187644116035099
11744732,2422,2265,1892,2590,1745187644116035099
11745732,2409,2257,1923,2576,1745187644116035099
11746733,2388,2242,1949,2490,1745187644116035099
11747733,2362,2228,1961,2411,1745187644116035099
11748733,2342,2214,1966,2380,1745187644116035099
11749733,2323,2206,1966,2366,1745187644116035099
11750733,2312,2201,1962,2320,1745187644116035099
11751733,2301,2193,1952,2260,1745187644116035099
11752733,2294,2187,1949,2228,1745187644116035099
11753733,2289,2181,1949,2260,1745187644116035099
11754733,2290,2177,1959,2334,1745187644116035099
11755733,2299,2174,1974,2408,1745187644116035099
11756733,2312,2176,1989,2435,1745187644116035099
11757733,2329,2179,1995,2408,1745187644116035099
11758734,2345,2174,1993,2342,1745187644116035099
11759734,2365,2171,1978,2264,1745187644116035099
11760734,2387,2164,1958,2186,1745187644116035099
11761734,2406,2158,1942,2115,1745187644183341775
11762734,2426,2148,1930,2058,1745187644183341775
11763734,2444,2140,1918,2007,1745187644183341775
11764734,2458,2134,1904,1956,1745187644183341775
11765734,2475,2122,1886,1920,1745187644183341775
11766734,2493,2114,1866,1905,1745187644183341775
11767734,2515,2112,1858,1908,1745187644183341775
11768734,2536,2110,1859,1917,1745187644183341775
11769734,2549,2114,1867,1923,1745187644183341775
11770735,2559,2118,1878,1912,1745187644183341775
11771735,2563,2125,1888,1862,1745187644183341775
11772735,2574,2136,1889,1787,1745187644183341775
11773735,2581,2145,1885,1712,1745187644183341775
11774735,2585,2154,1869,1672,1745187644183341775
11775735,2585,2161,1844,1682,1745187644183341775
11776735,2581,2168,1827,1747,1745187644183341775
11777735,2576,2181,1811,1815,1745187644183341775
11778735,2576,2192,1805,1887,1745187644183341775
11779735,2573,2205,1811,2000,1745187644183341775
11780735,2570,2222,1837,2126,1745187644183341775
11781735,2569,2234,1881,2193,1745187644183341775
11782736,2565,2236,1925,2171,1745187644183341775
11783736,2572,2236,1960,2086,1745187644183341775
11784736,2648,2237,1961,2025,1745187644183341775
11785736,2648,2227,1949,1874,1745187644183341775
11786736,2578,2217,1948,1824,1745187644183341775
11787736,2586,2202,1936,1793,1745187644183341775
11788736,2586,2166,1922,1792,1745187644183341775
11789736,2582,2126,1915,1836,1745187644183341775
11790736,2573,2056,1923,1931,1745187644183341775
11791736,2569,2015,1930,2050,1745187644183341775
11792736,2559,2038,1926,2188,1745187644183341775
11793736,2544,2106,1916,2322,1745187644183341775
11794737,2527,2148,1896,2438,1745187644183341775
11795737,2508,2137,1880,2511,1745187644183341775
11796737,2485,2093,1878,2546,1745187644183341775
11797737,2462,2052,1906,2533,1745187644183341775
11798737,2438,2032,1954,2440,1745187644183341775
11799737,2419,2070,2009,2297,1745187644183341775
11800737,2409,2130,2062,2157,1745187644183341775
11801737,2409,2169,2096,2043,1745187644183341775
11802737,2406,2184,2111,1953,1745187644183341775
11803737,2401,2185,2109,1866,1745187644183341775
11804737,2388,2176,2093,1758,1745187644183341775
11805737,2367,2164,2067,1621,1745187644183341775
11806738,2345,2147,2048,1494,1745187644183341775
11807738,2325,2129,2013,1400,1745187644183341775
11808738,2310,2101,1993,1384,1745187644183341775
11809738,2296,2074,1985,1473,1745187644183341775
11810738,2284,2067,1992,1636,1745187644183341775
11811738,2268,2083,2009,1826,1745187644183341775
11812738,2248,2099,2038,1978,1745187644183341775
11813738,2230,2112,2072,2091,1745187644183341775
11814738,2212,2116,2097,2175,1745187644183341775
11815738,2195,2137,2102,2229,1745187644183341775
11816738,2180,2146,2090,2261,1745187644183341775
11817738,2168,2137,2068,2281,1745187644183341775
11818739,2155,2118,2054,2307,1745187644183341775
11819739,2146,2098,2048,2325,1745187644237201179
11820739,2139,2086,2048,2306,1745187644237201179
11821739,2144,2080,2049,2224,1745187644237201179
11822739,2155,2069,2051,2102,1745187644237201179
11823739,2171,2060,2056,2000,1745187644237201179
11824739,2189,2048,2066,1955,1745187644237201179
11825739,2207,2027,2083,1969,1745187644237201179
11826739,2228,2012,2110,1997,1745187644237201179
11827739,2241,2000,2140,1988,1745187644237201179
11828739,2248,1990,2153,1918,1745187644237201179
11829739,2249,1986,2145,1813,1745187644237201179
11830740,2244,1981,2117,1700,1745187644237201179
11831740,2234,1977,2077,1598,1745187644237201179
11832740,2219,1968,2034,1540,1745187644237201179
11833740,2202,1958,2008,1564,1745187644237201179
11834740,2184,1955,2010,1693,1745187644237201179
11835740,2165,1954,2042,1896,1745187644237201179
11836740,2151,1956,2093,2113,1745187644237201179
11837740,2135,1996,2137,2259,1745187644237201179
11838740,2132,2058,2160,2332,1745187644237201179
11839741,2126,2105,2161,2341,1745187644237201179
11840740,2148,2121,2140,2330,1745187644237201179
11841740,2141,2129,2130,2309,1745187644237201179
11842741,2161,2105,2112,2285,1745187644237201179
11843741,2194,2052,2088,2249,1745187644237201179
11844741,2240,1985,2056,2205,1745187644237201179
11845741,2291,1953,2024,2142,1745187644237201179
11846741,2346,1972,1994,2065,1745187644237201179
11847741,2397,2011,1966,1963,1745187644237201179
11848741,2435,2050,1946,1869,1745187644237201179
11849741,2465,2067,1934,1804,1745187644237201179
11850741,2483,2076,1926,1781,1745187644237201179
11851741,2489,2072,1921,1819,1745187644237201179
11852741,2553,2146,1924,1911,1745187644237201179
11853741,2481,2088,1907,2040,1745187644237201179
11854742,2496,2097,1893,2168,1745187644237201179
11855742,2486,2104,1872,2259,1745187644237201179
11856742,2472,2116,1844,2306,1745187644237201179
11857742,2456,2121,1820,2304,1745187644237201179
11858742,2436,2144,1811,2278,1745187644237201179
11859742,2418,2162,1814,2245,1745187644237201179
11860742,2402,2180,1840,2200,1745187644237201179
11861742,2399,2196,1881,2120,1745187644237201179
11862742,2402,2204,1914,2008,1745187644237201179
11863742,2407,2213,1932,1917,1745187644237201179
11864742,2413,2220,1940,1907,1745187644237201179
11865742,2422,2230,1944,1945,1745187644237201179
11866743,2430,2239,1950,1979,1745187644237201179
11867743,2436,2246,1954,2005,1745187644237201179
11868743,2436,2248,1964,2053,1745187644237201179
11869743,2430,2249,1974,2108,1745187644237201179
11870743,2420,2251,1989,2152,1745187644237201179
11871743,2406,2254,2002,2159,1745187644237201179
11872743,2389,2254,2009,2125,1745187644237201179
11873743,2372,2252,2004,2088,1745187644237201179
11874743,2351,2249,1998,2061,1745187644237201179
11875743,2332,2245,1993,2114,1745187644237201179
11876743,2309,2245,1986,2228,1745187644237201179
11877743,2285,2244,1970,2366,1745187644295732936
11878744,2268,2232,1946,2509,1745187644295732936
11879744,2257,2215,1924,2613,1745187644295732936
11880744,2254,2194,1915,2670,1745187644295732936
11881744,2257,2177,1923,2668,1745187644295732936
11882744,2265,2180,1957,2598,1745187644295732936
11883744,2268,2197,2009,2468,1745187644295732936
11884744,2274,2205,2062,2283,1745187644295732936
11885744,2276,2195,2091,2082,1745187644295732936
11886744,2278,2172,2086,1910,1745187644295732936
11887744,2276,2144,2051,1828,1745187644295732936
11888744,2269,2122,2002,1843,1745187644295732936
11889744,2252,2105,1960,1926,1745187644295732936
11890745,2232,2092,1941,2058,1745187644295732936
11891745,2212,2085,1966,2194,1745187644295732936
11892745,2196,2080,2021,2293,1745187644295732936
11893745,2172,2076,2094,2345,1745187644295732936
11894745,2148,2069,2153,2357,1745187644295732936
11895745,2113,2065,2193,2347,1745187644295732936
11896745,2093,2060,2210,2310,1745187644295732936
11897745,2068,2054,2204,2261,1745187644295732936
11898745,2044,2048,2172,2213,1745187644295732936
11899745,2028,2040,2128,2157,1745187644295732936
11900745,2022,2033,2079,2097,1745187644295732936
11901745,2016,2027,2032,2040,1745187644295732936
11902746,2014,2020,1997,1997,1745187644295732936
11903746,2018,2013,1965,1965,1745187644295732936
11904746,2024,2009,1932,1913,1745187644295732936
11905746,2033,1998,1903,1808,1745187644295732936
11906746,2104,1982,1870,1667,1745187644295732936
11907746,2043,1958,1858,1570,1745187644295732936
11908746,2044,1945,1867,1550,1745187644295732936
11909746,2038,1944,1898,1637,1745187644295732936
11910746,2022,1953,1949,1778,1745187644295732936
11911746,2006,1960,2009,1880,1745187644295732936
11912746,1993,1962,2058,1908,1745187644295732936
11913746,1979,1963,2085,1907,1745187644295732936
11914747,1969,1971,2091,1933,1745187644295732936
11915747,1946,1982,2081,1996,1745187644295732936
11916747,1923,1988,2060,2081,1745187644295732936
11917747,1898,1998,2028,2171,1745187644295732936
11918747,1875,1994,1989,2232,1745187644295732936
11919747,1862,1998,1962,2225,1745187644295732936
11920747,1859,1996,1957,2129,1745187644295732936
11921747,1862,2002,1981,1984,1745187644295732936
11922747,1867,2012,2019,1889,1745187644295732936
11923747,1873,2025,2102,1859,1745187644295732936
11924747,1883,2033,2121,1875,1745187644295732936
11925747,1908,2034,2170,1896,1745187644295732936
11926748,1930,2022,2204,1913,1745187644295732936
11927748,1952,2001,2219,1934,1745187644295732936
11928748,1970,1976,2214,1949,1745187644295732936
11929748,1974,1970,2192,1932,1745187644295732936
11930748,1972,1993,2158,1886,1745187644295732936
11931748,1960,2027,2120,1817,1745187644295732936
11932748,1942,2056,2080,1723,1745187644295732936
11933748,1925,2073,2035,1617,1745187644295732936
11934748,1905,2081,1993,1517,1745187644295732936
11935748,1883,2089,1955,1428,1745187644354538701
11936748,1860,2092,1928,1414,1745187644354538701
11937748,1841,2086,1915,1532,1745187644354538701
11938749,1827,2051,1920,1765,1745187644354538701
11939749,1820,1996,1931,2058,1745187644354538701
11940749,1817,1957,1945,2318,1745187644354538701
11941749,1821,1942,1953,2458,1745187644354538701
11942749,1838,1961,1946,2426,1745187644354538701
11943749,1858,1992,1934,2241,1745187644354538701
11944749,1881,1993,1911,1984,1745187644354538701
11945749,1900,1952,1890,1772,1745187644354538701
11946749,1918,1883,1883,1708,1745187644354538701
11947749,1933,1841,1897,1769,1745187644354538701
11948749,1948,1869,1925,1901,1745187644354538701
11949749,1953,1939,1955,2059,1745187644354538701
11950750,1950,2003,1978,2203,1745187644354538701
11951750,1941,2051,1997,2284,1745187644354538701
11952750,1930,2076,2005,2268,1745187644354538701
11953750,1914,2091,2000,2141,1745187644354538701
11954750,1888,2092,1988,1959,1745187644354538701
11955751,1871,2088,1980,1779,1745187644354538701
11956750,1845,2078,1976,1669,1745187644354538701
11957751,1821,2070,1977,1702,1745187644354538701
11958750,1806,2066,1986,1881,1745187644354538701
11959750,1798,2073,2006,2120,1745187644354538701
11960750,1796,2081,2033,2300,1745187644354538701
11961750,1801,2088,2061,2369,1745187644354538701
11962751,1806,2090,2097,2312,1745187644354538701
11963751,1814,2088,2130,2158,1745187644354538701
11964751,1822,2086,2210,1973,1745187644354538701
11965751,1833,2069,2145,1775,1745187644354538701
11966751,1841,2075,2136,1669,1745187644354538701
11967751,1850,2074,2114,1657,1745187644354538701
11968751,1856,2065,2089,1742,1745187644354538701
11969751,1851,2066,2061,1896,1745187644354538701
11970751,1838,2054,2045,2088,1745187644354538701
11971751,1825,2050,2044,2211,1745187644354538701
11972751,1806,2041,2064,2222,1745187644354538701
11973751,1787,2034,2088,2099,1745187644354538701
11974752,1767,2020,2109,1902,1745187644354538701
11975752,1749,2010,2109,1740,1745187644354538701
11976752,1726,2000,2076,1632,1745187644354538701
11977752,1703,1992,2003,1554,1745187644354538701
11978752,1686,1977,1925,1535,1745187644354538701
11979752,1675,1968,1864,1564,1745187644354538701
11980752,1668,1963,1840,1636,1745187644354538701
11981752,1668,1962,1873,1771,1745187644354538701
11982752,1672,1972,1969,1961,1745187644354538701
11983752,1680,1984,2101,2113,1745187644354538701
11984752,1692,1991,2229,2156,1745187644354538701
11985752,1704,1989,2323,2117,1745187644354538701
11986753,1716,1979,2369,2042,1745187644354538701
11987753,1725,1964,2373,1988,1745187644354538701
11988753,1734,1941,2350,1973,1745187644354538701
11989753,1737,1928,2312,1994,1745187644354538701
11990753,1733,1916,2276,2029,1745187644354538701
11991753,1725,1913,2246,2044,1745187644354538701
11992753,1710,1907,2223,2040,1745187644354538701
11993753,1698,1907,2203,2030,1745187644413216603
11994753,1683,1913,2186,2018,1745187644413216603
11995753,1667,1917,2167,1998,1745187644413216603
11996753,1650,1928,2142,1972,1745187644413216603
11997753,1636,1936,2112,1943,1745187644413216603
11998754,1626,1942,2078,1907,1745187644413216603
11999754,1626,1947,2054,1828,1745187644413216603
12000754,1633,1952,2028,1698,1745187644413216603
12001754,1644,1955,2004,1555,1745187644413216603
12002754,1657,1957,1982,1477,1745187644413216603
12003754,1673,1957,1976,1517,1745187644413216603
12004754,1688,1957,1989,1662,1745187644413216603
12005754,1705,1956,2030,1853,1745187644413216603
12006754,1729,1953,2080,2026,1745187644413216603
12007754,1753,1949,2124,2149,1745187644413216603
12008754,1772,1948,2162,2224,1745187644413216603
12009754,1783,1956,2181,2261,1745187644413216603
12010755,1784,1973,2184,2276,1745187644413216603
12011755,1776,1990,2178,2274,1745187644413216603
12012755,1764,1999,2162,2253,1745187644413216603
12013755,1753,2002,2150,2210,1745187644413216603
12014755,1739,2002,2133,2152,1745187644413216603
12015755,1723,2006,2115,2107,1745187644413216603
12016755,1706,2022,2098,2097,1745187644413216603
12017755,1689,2020,2074,2114,1745187644413216603
12018755,1676,2024,2049,2152,1745187644413216603
12019755,1672,2027,2021,2193,1745187644413216603
12020755,1670,2024,1992,2220,1745187644413216603
12021755,1676,2036,1985,2236,1745187644413216603
12022756,1690,2035,2024,2249,1745187644413216603
12023756,1697,2084,2000,2156,1745187644413216603
12024756,1694,1998,1987,2068,1745187644413216603
12025756,1718,1984,2004,1982,1745187644413216603
12026756,1734,1941,2016,1938,1745187644413216603
12027756,1749,1885,2025,1927,1745187644413216603
12028756,1758,1817,2028,1926,1745187644413216603
12029756,1758,1785,2042,1931,1745187644413216603
12030756,1756,1765,2053,1914,1745187644413216603
12031756,1747,1761,2070,1838,1745187644413216603
12032756,1733,1766,2094,1710,1745187644413216603
12033756,1717,1773,2114,1554,1745187644413216603
12034757,1700,1778,2125,1432,1745187644413216603
12035757,1681,1787,2113,1366,1745187644413216603
12036757,1660,1792,2081,1386,1745187644413216603
12037757,1642,1798,2027,1509,1745187644413216603
12038757,1629,1804,1979,1712,1745187644413216603
12039757,1624,1804,1944,1957,1745187644413216603
12040757,1625,1796,1938,2217,1745187644413216603
12041757,1635,1787,1972,2424,1745187644413216603
12042757,1651,1787,2035,2528,1745187644413216603
12043757,1673,1808,2101,2532,1745187644413216603
12044757,1699,1869,2157,2441,1745187644413216603
12045757,1721,1933,2189,2289,1745187644413216603
12046758,1739,1959,2209,2099,1745187644413216603
12047758,1750,1953,2216,1913,1745187644413216603
12048758,1748,1924,2205,1778,1745187644413216603
12049758,1741,1898,2192,1731,1745187644413216603
12050758,1726,1882,2182,1771,1745187644413216603
12051758,1712,1871,2178,1837,1745187644475152078
12052758,1697,1870,2179,1877,1745187644475152078
12053758,1684,1865,2179,1871,1745187644475152078
12054758,1672,1861,2180,1838,1745187644475152078
12055758,1660,1858,2180,1811,1745187644475152078
12056758,1651,1879,2174,1828,1745187644475152078
12057758,1645,1914,2163,1913,1745187644475152078
12058759,1644,1948,2154,1999,1745187644475152078
12059759,1646,1969,2142,2093,1745187644475152078
12060759,1654,1981,2137,2144,1745187644475152078
12061759,1670,1982,2131,2161,1745187644475152078
12062759,1689,1980,2122,2150,1745187644475152078
12063759,1712,1976,2115,2122,1745187644475152078
12064759,1732,1974,2103,2072,1745187644475152078
12065759,1760,1971,2091,2002,1745187644475152078
12066759,1779,1966,2082,1910,1745187644475152078
12067759,1797,1963,2068,1828,1745187644475152078
12068759,1808,1960,2059,1775,1745187644475152078
12069759,1816,1960,2054,1746,1745187644475152078
12070760,1816,1961,2048,1717,1745187644475152078
12071760,1817,1962,2039,1661,1745187644475152078
12072760,1813,1960,2027,1614,1745187644475152078
12073760,1805,1957,2017,1622,1745187644475152078
12074760,1793,1962,2007,1739,1745187644475152078
12075760,1779,1973,2002,1957,1745187644475152078
12076760,1766,1989,2013,2185,1745187644475152078
12077760,1756,2003,2021,2304,1745187644475152078
12078762,1754,2014,2021,2283,1745187644475152078
12079762,1754,2022,2017,2186,1745187644475152078
12080760,1764,2024,2001,2054,1745187644475152078
12081761,1781,2029,2017,1861,1745187644475152078
12082761,1855,2014,1953,1632,1745187644475152078
12083761,1840,1984,1946,1457,1745187644475152078
12084761,1895,1978,1947,1345,1745187644475152078
12085761,1941,1976,1965,1347,1745187644475152078
12086761,1978,1992,1996,1459,1745187644475152078
12087761,1999,2016,2044,1558,1745187644475152078
12088761,1996,2035,2091,1571,1745187644475152078
12089761,1968,2040,2116,1516,1745187644475152078
12090761,1943,2048,2117,1438,1745187644475152078
12091761,1905,2037,2089,1472,1745187644475152078
12092761,1870,2027,2065,1645,1745187644475152078
12093761,1841,2019,2060,1892,1745187644475152078
12094762,1810,2018,2071,2132,1745187644475152078
12095762,1775,2020,2099,2316,1745187644475152078
12096762,1736,2024,2150,2438,1745187644475152078
12097762,1702,2034,2209,2486,1745187644475152078
12098762,1684,2037,2269,2469,1745187644475152078
12099762,1681,2043,2320,2420,1745187644475152078
12100762,1691,2051,2345,2364,1745187644475152078
12101762,1729,2054,2341,2297,1745187644475152078
12102762,1779,2058,2319,2237,1745187644475152078
12103762,1822,2053,2284,2185,1745187644475152078
12104762,1844,2048,2249,2141,1745187644475152078
12105762,1843,2037,2213,2101,1745187644475152078
12106763,1822,2028,2182,2070,1745187644475152078
12107763,1793,2017,2150,2031,1745187644475152078
12108763,1763,2002,2126,1972,1745187644475152078
12109763,1739,1990,2091,1884,1745187644531569219
12110763,1726,1982,2053,1793,1745187644531569219
12111763,1732,1977,2011,1745,1745187644531569219
12112763,1757,1976,1977,1781,1745187644531569219
12113763,1793,1977,1956,1893,1745187644531569219
12114763,1811,1987,1950,2070,1745187644531569219
12115763,1801,2006,1960,2257,1745187644531569219
12116763,1767,2025,1962,2398,1745187644531569219
12117763,1728,2048,1952,2462,1745187644531569219
12118764,1697,2061,1936,2480,1745187644531569219
12119764,1681,2067,1930,2478,1745187644531569219
12120764,1675,2066,1940,2499,1745187644531569219
12121764,1688,2067,2001,2549,1745187644531569219
12122764,1708,2070,2068,2583,1745187644531569219
12123764,1738,2074,2145,2586,1745187644531569219
12124764,1772,2079,2198,2559,1745187644531569219
12125764,1808,2077,2228,2531,1745187644531569219
12126764,1848,2077,2230,2531,1745187644531569219
12127764,1896,2084,2214,2549,1745187644531569219
12128764,1943,2096,2187,2559,1745187644531569219
12129764,1988,2094,2160,2546,1745187644531569219
12130765,2027,2075,2130,2512,1745187644531569219
12131765,2066,2048,2097,2481,1745187644531569219
12132765,2096,2012,2066,2475,1745187644531569219
12133765,2126,2006,2038,2496,1745187644531569219
12134765,2149,2060,2013,2503,1745187644531569219
12135765,2169,2132,1992,2469,1745187644531569219
12136765,2187,2180,1972,2373,1745187644531569219
12137765,2201,2193,1950,2260,1745187644531569219
12138765,2225,2190,1926,2178,1745187644531569219
12139766,2249,2170,1901,2140,1745187644531569219
12140765,2281,2144,1885,2156,1745187644531569219
12141765,2313,2117,1880,2186,1745187644531569219
12142766,2346,2096,1893,2181,1745187644531569219
12143766,2369,2078,1900,2115,1745187644531569219
12144766,2475,2075,1908,2048,1745187644531569219
12145766,2422,2057,1921,2006,1745187644531569219
12146766,2452,2058,1921,2038,1745187644531569219
12147766,2478,2066,1913,1987,1745187644531569219
12148766,2476,2072,1938,2006,1745187644531569219
12149766,2475,2081,1949,2026,1745187644531569219
12150766,2480,2102,1958,2084,1745187644531569219
12151766,2462,2122,2002,2188,1745187644531569219
12152766,2460,2134,2052,2318,1745187644531569219
12153766,2461,2132,2095,2437,1745187644531569219
12154767,2462,2130,2122,2538,1745187644531569219
12155767,2466,2137,2128,2606,1745187644531569219
12156767,2469,2150,2121,2659,1745187644531569219
12157767,2474,2180,2094,2676,1745187644531569219
12158767,2484,2193,2062,2668,1745187644531569219
12159767,2493,2177,2025,2644,1745187644531569219
12160767,2499,2144,1995,2614,1745187644531569219
12161767,2513,2122,1970,2574,1745187644531569219
12162767,2531,2128,1949,2531,1745187644531569219
12163767,2545,2164,1933,2463,1745187644531569219
12164767,2554,2223,1920,2396,1745187644531569219
12165767,2559,2270,1909,2341,1745187644531569219
12166768,2568,2292,1907,2312,1745187644531569219
12167768,2582,2293,1909,2276,1745187644671067685
12168768,2594,2270,1917,2234,1745187644671067685
12169768,2603,2230,1920,2176,1745187644671067685
12170768,2609,2180,1916,2100,1745187644671067685
12171768,2599,2117,1905,2035,1745187644671067685
12172768,2584,2076,1889,2003,1745187644671067685
12173768,2568,2107,1876,1992,1745187644671067685
12174768,2559,2169,1870,1969,1745187644671067685
12175768,2540,2213,1865,1917,1745187644671067685
12176768,2522,2244,1869,1806,1745187644671067685
12177768,2508,2269,1881,1669,1745187644671067685
12178769,2498,2288,1898,1587,1745187644671067685
12179769,2496,2303,1921,1629,1745187644671067685
12180769,2500,2314,1949,1806,1745187644671067685
12181769,2508,2328,1987,2061,1745187644671067685
12182769,2520,2340,2026,2309,1745187644671067685
12183769,2538,2340,2059,2479,1745187644671067685
12184769,2558,2334,2076,2547,1745187644671067685
12185769,2579,2322,2073,2516,1745187644671067685
12186769,2606,2291,2061,2420,1745187644671067685
12187769,2632,2254,2053,2278,1745187644671067685
12188769,2652,2221,2041,2118,1745187644671067685
12189769,2665,2196,2027,1967,1745187644671067685
12190770,2670,2208,2014,1873,1745187644671067685
12191770,2668,2232,1995,1866,1745187644671067685
12192770,2668,2227,1971,1954,1745187644671067685
12193770,2662,2200,1949,2101,1745187644671067685
12194770,2660,2182,1935,2249,1745187644671067685
12195770,2652,2179,1932,2345,1745187644671067685
12196770,2631,2186,1938,2375,1745187644671067685
12197770,2610,2203,1936,2349,1745187644671067685
12198771,2593,2240,1925,2283,1745187644671067685
12199770,2588,2286,1901,2209,1745187644671067685
12200770,2590,2322,1923,2154,1745187644671067685
12201770,2587,2329,1836,2124,1745187644671067685
12202771,2610,2354,1818,2149,1745187644671067685
12203771,2617,2357,1810,2251,1745187644671067685
12204771,2619,2340,1804,2297,1745187644671067685
12205771,2628,2313,1792,2202,1745187644671067685
12206771,2636,2280,1773,1995,1745187644671067685
12207771,2644,2250,1749,1791,1745187644671067685
12208771,2653,2239,1729,1712,1745187644671067685
12209771,2689,2200,1740,1729,1745187644671067685
12210771,2666,2210,1794,1907,1745187644671067685
12211771,2694,2205,1846,1998,1745187644671067685
12212771,2675,2208,1937,2146,1745187644671067685
12213771,2676,2212,2006,2246,1745187644671067685
12214772,2676,2221,2048,2286,1745187644671067685
12215772,2668,2236,2052,2270,1745187644671067685
12216772,2653,2248,2033,2228,1745187644671067685
12217772,2635,2258,2019,2170,1745187644671067685
12218772,2619,2267,2014,2119,1745187644671067685
12219772,2603,2268,2018,2071,1745187644671067685
12220772,2594,2266,2024,2021,1745187644671067685
12221772,2584,2264,2031,1967,1745187644671067685
12222772,2577,2248,2030,1916,1745187644671067685
12223772,2570,2234,2015,1873,1745187644671067685
12224772,2562,2222,1995,1843,1745187644671067685
12225772,2561,2209,1982,1853,1745187644680350933
12226773,2559,2200,1981,1908,1745187644680350933
12227773,2559,2190,1987,1981,1745187644680350933
12228773,2557,2190,1994,2051,1745187644680350933
12229773,2544,2168,1997,2070,1745187644680350933
12230773,2522,2154,1990,2050,1745187644680350933
12231773,2492,2147,1972,2018,1745187644680350933
12232773,2458,2145,1948,1975,1745187644680350933
12233773,2422,2149,1929,1944,1745187644680350933
12234773,2386,2148,1926,1963,1745187644680350933
12235773,2354,2150,1943,2017,1745187644680350933
12236773,2325,2152,1970,2061,1745187644680350933
12237773,2300,2149,1997,2075,1745187644680350933
12238774,2283,2142,2013,2070,1745187644680350933
12239774,2270,2130,2025,2076,1745187644680350933
12240774,2267,2117,2031,2118,1745187644680350933
12241774,2268,2106,2030,2182,1745187644680350933
12242774,2276,2106,2016,2230,1745187644680350933
12243774,2284,2106,1996,2256,1745187644680350933
12244774,2294,2099,1977,2250,1745187644680350933
12245774,2297,2085,1969,2182,1745187644680350933
12246774,2300,2069,1979,2044,1745187644680350933
12247774,2297,2053,2002,1853,1745187644680350933
12248774,2289,2043,2025,1684,1745187644680350933
12249774,2276,2036,2036,1589,1745187644680350933
12250775,2256,2030,2036,1600,1745187644680350933
12251775,2238,2024,2032,1700,1745187644680350933
12252775,2211,2021,2028,1827,1745187644680350933
12253775,2178,2013,2049,1948,1745187644680350933
12254775,2157,2019,2077,2013,1745187644680350933
12255775,2126,2027,2106,1995,1745187644680350933
12256776,2096,2033,2120,1917,1745187644680350933
12257775,2069,2042,2108,1835,1745187644680350933
12258775,2050,2048,2078,1784,1745187644680350933
12259775,2035,2049,2029,1726,1745187644680350933
12260775,2030,2042,1974,1633,1745187644680350933
12261775,2034,2034,1928,1546,1745187644680350933
12262776,2033,2025,1906,1535,1745187644680350933
12263776,2035,2024,1920,1649,1745187644680350933
12264776,2042,2032,1976,1869,1745187644680350933
12265776,2054,2051,2068,2102,1745187644680350933
12266776,2066,2070,2164,2264,1745187644680350933
12267776,2078,2088,2243,2335,1745187644680350933
12268776,2086,2107,2291,2357,1745187644680350933
12269776,2088,2132,2314,2349,1745187644680350933
12270776,2088,2155,2316,2315,1745187644680350933
12271777,2080,2165,2297,2257,1745187644680350933
12272776,2064,2161,2262,2163,1745187644680350933
12273776,2043,2132,2217,2043,1745187644680350933
12274777,2017,2081,2168,1929,1745187644680350933
12275777,1984,2026,2118,1853,1745187644680350933
12276777,1953,1986,2080,1849,1745187644680350933
12277777,1926,1955,2054,1917,1745187644680350933
12278777,1908,1939,2048,2045,1745187644680350933
12279777,1899,1947,2050,2190,1745187644680350933
12280777,1899,1974,2059,2306,1745187644680350933
12281777,1908,1989,2068,2351,1745187644680350933
12282778,1926,1988,2077,2330,1745187644680350933
12283777,1925,1998,2085,2271,1745187644696284486
12284778,1937,2013,2091,2198,1745187644696284486
12285778,1950,2011,2086,2098,1745187644696284486
12286778,1961,1992,2068,1961,1745187644696284486
12287778,1969,1968,2039,1810,1745187644696284486
12288778,1968,1945,2011,1704,1745187644696284486
12289778,1963,1931,1996,1657,1745187644696284486
12290778,1956,1924,2003,1667,1745187644696284486
12291778,1942,1925,2027,1730,1745187644696284486
12292778,1928,1932,2060,1824,1745187644696284486
12293778,1907,1940,2086,1924,1745187644696284486
12294778,1890,1948,2096,2011,1745187644696284486
12295778,1869,1957,2085,2065,1745187644696284486
12296778,1849,1964,2062,2064,1745187644696284486
12297778,1828,1970,2030,2038,1745187644696284486
12298779,1812,1974,2006,2076,1745187644696284486
12299779,1798,1982,2005,2171,1745187644696284486
12300779,1796,1992,2033,2283,1745187644696284486
12301779,1801,2000,2082,2348,1745187644696284486
12302779,1812,2006,2123,2337,1745187644696284486
12303779,1827,2008,2147,2272,1745187644696284486
12304779,1844,2004,2156,2209,1745187644696284486
12305779,1865,2002,2151,2179,1745187644696284486
12306779,1885,2001,2129,2178,1745187644696284486
12307779,1901,2000,2115,2191,1745187644696284486
12308779,1910,1998,2098,2192,1745187644696284486
12309779,1913,1993,2084,2180,1745187644696284486
12310780,1910,1987,2077,2157,1745187644696284486
12311780,1906,1980,2076,2125,1745187644696284486
12312780,1897,1972,2082,2085,1745187644696284486
12313780,1885,1965,2099,2034,1745187644696284486
12314781,1870,1962,2112,1968,1745187644696284486
12315780,1851,1964,2113,1864,1745187644696284486
12316780,1832,1964,2096,1725,1745187644696284486
12317780,1817,1971,2073,1617,1745187644696284486
12318780,1806,1965,2048,1594,1745187644696284486
12319780,1804,1972,2052,1705,1745187644696284486
12320780,1806,1976,2067,1908,1745187644696284486
12321780,1815,1981,2089,2084,1745187644696284486
12322781,1825,1986,2104,2136,1745187644696284486
12323781,1835,1996,2104,2058,1745187644696284486
12324781,1849,1998,2100,1927,1745187644696284486
12325781,1868,1986,2092,1842,1745187644696284486
12326781,1884,1968,2090,1840,1745187644696284486
12327781,1900,1941,2093,1898,1745187644696284486
12328781,1922,1917,2096,1980,1745187644696284486
12329781,1913,1907,2109,2042,1745187644696284486
12330781,1903,1898,2108,2073,1745187644696284486
12331781,1878,1894,2105,2078,1745187644696284486
12332781,1848,1906,2096,2082,1745187644696284486
12333781,1813,1940,2089,2088,1745187644696284486
12334782,1777,1982,2085,2092,1745187644696284486
12335782,1742,2020,2085,2085,1745187644696284486
12336782,1709,2053,2089,2067,1745187644696284486
12337782,1680,2068,2097,2019,1745187644696284486
12338782,1656,2077,2106,1963,1745187644696284486
12339782,1642,2081,2112,1962,1745187644696284486
12340782,1674,2076,2097,1865,1745187644696284486
12341782,1625,2076,2105,1879,1745187644763532309
12342782,1629,2078,2100,1922,1745187644763532309
12343782,1635,2079,2093,1981,1745187644763532309
12344782,1643,2081,2092,2041,1745187644763532309
12345782,1657,2081,2094,2081,1745187644763532309
12346783,1676,2088,2097,2094,1745187644763532309
12347783,1694,2077,2096,2121,1745187644763532309
12348783,1716,2080,2093,2169,1745187644763532309
12349783,1741,2089,2088,2213,1745187644763532309
12350783,1746,2088,2076,2253,1745187644763532309
12351783,1758,2093,2059,2258,1745187644763532309
12352783,1767,2099,2034,2274,1745187644763532309
12353783,1766,2099,1998,2130,1745187644763532309
12354783,1786,2118,1966,2045,1745187644763532309
12355783,1793,2129,1956,2019,1745187644763532309
12356783,1796,2151,1912,2123,1745187644763532309
12357783,1819,2168,1892,2308,1745187644763532309
12358784,1840,2194,1884,2477,1745187644763532309
12359784,1877,2216,1878,2559,1745187644763532309
12360784,1921,2233,1875,2539,1745187644763532309
12361784,1968,2241,1873,2484,1745187644763532309
12362784,2021,2242,1884,2474,1745187644763532309
12363784,2080,2239,1915,2515,1745187644763532309
12364784,2137,2232,1965,2535,1745187644763532309
12365784,2200,2218,2017,2493,1745187644763532309
12366784,2254,2198,2067,2365,1745187644763532309
12367785,2302,2164,2101,2183,1745187644763532309
12368786,2325,2180,2118,1981,1745187644763532309
12369784,2337,2084,2131,1836,1745187644763532309
12370785,2337,2092,2091,1750,1745187644763532309
12371785,2338,2125,2064,1710,1745187644763532309
12372785,2321,2142,2035,1693,1745187644763532309
12373785,2299,2142,2017,1690,1745187644763532309
12374785,2275,2133,2009,1721,1745187644763532309
12375785,2247,2125,2016,1782,1745187644763532309
12376785,2214,2124,2029,1852,1745187644763532309
12377785,2185,2129,2049,1916,1745187644763532309
12378785,2160,2125,2067,1987,1745187644763532309
12379785,2144,2121,2083,2040,1745187644763532309
12380785,2136,2112,2090,2064,1745187644763532309
12381785,2132,2100,2090,2064,1745187644763532309
12382786,2133,2085,2082,2038,1745187644763532309
12383786,2140,2072,2072,1992,1745187644763532309
12384786,2145,2054,2057,1922,1745187644763532309
12385786,2147,2030,2041,1822,1745187644763532309
12386786,2149,2004,2029,1701,1745187644763532309
12387786,2145,1973,2022,1584,1745187644763532309
12388786,2134,1952,2021,1517,1745187644763532309
12389786,2120,1933,2028,1500,1745187644763532309
12390786,2090,1916,2041,1525,1745187644763532309
12391786,2059,1899,2056,1548,1745187644763532309
12392786,2016,1878,2070,1566,1745187644763532309
12393787,1973,1859,2075,1553,1745187644763532309
12394787,1929,1841,2074,1535,1745187644763532309
12395787,1881,1820,2069,1524,1745187644763532309
12396787,1836,1806,2067,1500,1745187644763532309
12397787,1792,1790,2065,1480,1745187644763532309
12398787,1758,1776,2058,1475,1745187644763532309
12399787,1728,1758,2033,1489,1745187644816179692
12400787,1707,1743,2012,1529,1745187644816179692
12401787,1698,1732,2000,1586,1745187644816179692
12402787,1693,1722,1994,1646,1745187644816179692
12403787,1693,1718,1996,1700,1745187644816179692
12404787,1699,1718,1998,1713,1745187644816179692
12405787,1706,1713,2003,1674,1745187644816179692
12406788,1713,1704,2016,1627,1745187644816179692
12407788,1714,1692,2040,1619,1745187644816179692
12408788,1710,1681,2075,1654,1745187644816179692
12409788,1696,1672,2122,1690,1745187644816179692
12410788,1670,1668,2180,1673,1745187644816179692
12411788,1641,1668,2245,1570,1745187644816179692
12412788,1606,1668,2305,1410,1745187644816179692
12413788,1567,1666,2348,1243,1745187644816179692
12414788,1534,1666,2370,1130,1745187644816179692
12415788,1490,1669,2373,1138,1745187644816179692
12416788,1451,1678,2377,1288,1745187644816179692
12417788,1414,1695,2385,1502,1745187644816179692
12418789,1387,1714,2390,1692,1745187644816179692
12419789,1368,1731,2392,1832,1745187644816179692
12420789,1356,1740,2385,1904,1745187644816179692
12421789,1352,1748,2371,1931,1745187644816179692
12422789,1371,1744,2335,1934,1745187644816179692
12423789,1360,1750,2341,1918,1745187644816179692
12424789,1368,1748,2324,1891,1745187644816179692
12425789,1377,1751,2309,1851,1745187644816179692
12426789,1388,1761,2293,1802,1745187644816179692
12427789,1395,1765,2280,1754,1745187644816179692
12428789,1394,1764,2270,1723,1745187644816179692
12429789,1389,1763,2262,1697,1745187644816179692
12430790,1375,1758,2261,1673,1745187644816179692
12431790,1357,1761,2257,1672,1745187644816179692
12432790,1338,1803,2275,1660,1745187644816179692
12433790,1307,1760,2245,1653,1745187644816179692
12434790,1295,1769,2249,1645,1745187644816179692
12435790,1273,1780,2229,1648,1745187644816179692
12436790,1254,1788,2211,1676,1745187644816179692
12437790,1235,1808,2190,1768,1745187644816179692
12438790,1228,1824,2160,1859,1745187644816179692
12439790,1225,1834,2123,1886,1745187644816179692
12440790,1232,1838,2076,1793,1745187644816179692
12441790,1241,1835,2022,1624,1745187644816179692
12442791,1258,1829,1982,1509,1745187644816179692
12443791,1273,1835,1976,1507,1745187644816179692
12444791,1290,1850,2020,1588,1745187644816179692
12445791,1313,1870,2101,1692,1745187644816179692
12446791,1344,1890,2182,1752,1745187644816179692
12447791,1374,1903,2242,1774,1745187644816179692
12448791,1400,1917,2277,1770,1745187644816179692
12449791,1418,1927,2286,1757,1745187644816179692
12450791,1433,1937,2275,1790,1745187644816179692
12451791,1443,1948,2260,1918,1745187644816179692
12452791,1450,1961,2256,2106,1745187644816179692
12453791,1456,1976,2261,2283,1745187644816179692
12454792,1459,1977,2272,2397,1745187644816179692
12455792,1459,1976,2278,2421,1745187644816179692
12456792,1456,1977,2276,2365,1745187644816179692
12457792,1452,1985,2265,2270,1745187644875177278
12458792,1452,2002,2249,2194,1745187644875177278
12459792,1462,2031,2231,2166,1745187644875177278
12460792,1483,2055,2205,2194,1745187644875177278
12461792,1508,2060,2188,2264,1745187644875177278
12462792,1535,2043,2165,2340,1745187644875177278
12463792,1573,2031,2152,2398,1745187644875177278
12464792,1620,2032,2136,2414,1745187644875177278
12465792,1667,2049,2118,2393,1745187644875177278
12466793,1716,2085,2096,2356,1745187644875177278
12467793,1762,2122,2065,2318,1745187644875177278
12468793,1802,2141,2029,2296,1745187644875177278
12469793,1833,2142,1989,2276,1745187644875177278
12470793,1864,2133,1952,2276,1745187644875177278
12471793,1889,2129,1926,2315,1745187644875177278
12472793,1915,2128,1922,2386,1745187644875177278
12473793,1956,2134,1932,2451,1745187644875177278
12474793,1996,2146,1952,2467,1745187644875177278
12475793,2023,2160,1963,2375,1745187644875177278
12476793,2030,2173,1957,2145,1745187644875177278
12477793,2024,2188,1935,1826,1745187644875177278
12478794,2010,2194,1905,1556,1745187644875177278
12479794,1997,2200,1887,1492,1745187644875177278
12480794,1993,2209,1897,1682,1745187644875177278
12481794,1998,2230,1936,2073,1745187644875177278
12482794,2010,2258,1989,2485,1745187644875177278
12483794,2037,2281,2036,2784,1745187644875177278
12484795,2074,2292,2069,2937,1745187644875177278
12485794,2162,2290,2078,2957,1745187644875177278
12486794,2128,2249,2080,2929,1745187644875177278
12487794,2161,2213,2077,2872,1745187644875177278
