timestamp,emg0,emg1,emg2,emg3,pkt_time_ns
6868360,3434,2020,677,1774,1745203091567360040
6869358,3600,2188,728,1792,1745203091567360040
6870358,3736,2328,774,1812,1745203091567360040
6871358,3834,2449,820,1827,1745203091567360040
6872358,3905,2552,866,1841,1745203091567360040
6873358,3955,2642,902,1853,1745203091567360040
6874358,3991,2740,935,1864,1745203091567360040
6875358,4017,2851,968,1874,1745203091567360040
6876358,4036,2974,1002,1882,1745203091567360040
6877358,4051,3114,1037,1892,1745203091567360040
6878358,4059,3262,1072,1902,1745203091567360040
6879358,4065,3424,1105,1910,1745203091567360040
6880358,4070,3583,1143,1918,1745203091567360040
6881359,4073,3722,1182,1925,1745203091567360040
6882359,4076,3824,1225,1935,1745203091567360040
6883359,4078,3896,1266,1945,1745203091567360040
6884359,4081,3948,1314,1956,1745203091567360040
6885359,4082,3986,1361,1969,1745203091567360040
6886359,4081,4013,1413,1981,1745203091567360040
6887359,4082,4035,1464,1990,1745203091567360040
6888359,4084,4046,1514,2000,1745203091567360040
6889359,4083,4056,1550,2008,1745203091567360040
6890359,4083,4064,1592,2015,1745203091567360040
6891359,4084,4070,1631,2024,1745203091567360040
6892359,4085,4075,1662,2028,1745203091567360040
6893360,4084,4076,1692,2034,1745203091567360040
6894360,4084,4079,1717,2041,1745203091567360040
6895360,4085,4080,1741,2044,1745203091567360040
6896360,4084,4080,1761,2051,1745203091567360040
6897360,4086,4081,1781,2058,1745203091567360040
6898360,4086,4084,1798,2062,1745203091567360040
6899360,4085,4083,1822,2067,1745203091567360040
6900360,4084,4084,1843,2069,1745203091567360040
6901360,4085,4084,1867,2071,1745203091567360040
6902360,4085,4084,1895,2070,1745203091567360040
6903360,4086,4084,1922,2068,1745203091567360040
6904360,4085,4085,1955,2068,1745203091567360040
6905361,4085,4085,1989,2069,1745203091567360040
6906361,4085,4085,2026,2072,1745203091567360040
6907361,4086,4084,2062,2074,1745203091567360040
6908361,4086,4086,2097,2077,1745203091567360040
6909361,4086,4085,2129,2078,1745203091567360040
6910361,4085,4085,2155,2078,1745203091567360040
6911361,4085,4086,2180,2081,1745203091567360040
6912361,4084,4086,2200,2082,1745203091567360040
6913361,4085,4086,2219,2083,1745203091567360040
6914361,4086,4085,2232,2084,1745203091567360040
6915361,4086,4085,2244,2086,1745203091567360040
6916361,4084,4086,2253,2087,1745203091567360040
6917362,4086,4084,2264,2088,1745203091567360040
6918362,4085,4086,2275,2088,1745203091567360040
6919362,4086,4086,2287,2086,1745203091567360040
6920362,4086,4085,2301,2084,1745203091567360040
6921362,4086,4085,2313,2081,1745203091567360040
6922362,4086,4086,2326,2078,1745203091567360040
6923362,4085,4086,2346,2081,1745203091567360040
6924362,4085,4085,2367,2078,1745203091567360040
6925362,4086,4085,2390,2078,1745203091567360040
6926362,4086,4085,2417,2080,1745203091621266683
6927362,4085,4083,2441,2080,1745203091621266683
6928362,4086,4086,2462,2081,1745203091621266683
6929363,4083,4086,2483,2082,1745203091621266683
6930363,4085,4085,2498,2081,1745203091621266683
6931363,4086,4085,2509,2082,1745203091621266683
6932363,4088,4086,2516,2081,1745203091621266683
6933363,4086,4086,2519,2081,1745203091621266683
6934363,4085,4086,2518,2083,1745203091621266683
6935363,4085,4086,2516,2088,1745203091621266683
6936363,4087,4088,2516,2093,1745203091621266683
6937363,4085,4089,2517,2098,1745203091621266683
6938363,4085,4086,2518,2106,1745203091621266683
6939363,4086,4088,2523,2114,1745203091621266683
6940363,4085,4086,2525,2116,1745203091621266683
6941364,4090,4084,2529,2120,1745203091621266683
6942364,4086,4085,2529,2117,1745203091621266683
6943364,4085,4086,2537,2112,1745203091621266683
6944364,4086,4085,2548,2105,1745203091621266683
6945364,4088,4086,2559,2094,1745203091621266683
6946364,4085,4086,2566,2085,1745203091621266683
6947364,4085,4086,2581,2072,1745203091621266683
6948364,4086,4085,2594,2061,1745203091621266683
6949364,4087,4086,2604,2050,1745203091621266683
6950364,4086,4088,2612,2039,1745203091621266683
6951364,4086,4084,2614,2031,1745203091621266683
6952364,4086,4086,2609,2020,1745203091621266683
6953365,4088,4086,2600,2017,1745203091621266683
6954365,4088,4086,2590,2005,1745203091621266683
6955365,4086,4088,2576,1992,1745203091621266683
6956365,4088,4088,2561,1980,1745203091621266683
6957365,4084,4086,2554,1968,1745203091621266683
6958365,4086,4085,2539,1963,1745203091621266683
6959365,4088,4086,2526,1964,1745203091621266683
6960365,4086,4087,2521,1965,1745203091621266683
6961365,4086,4087,2517,1970,1745203091621266683
6962365,4085,4086,2518,1980,1745203091621266683
6963365,4088,4085,2524,1993,1745203091621266683
6964365,4088,4088,2533,2006,1745203091621266683
6965366,4086,4089,2549,2021,1745203091621266683
6966366,4085,4087,2559,2033,1745203091621266683
6967366,4088,4087,2570,2041,1745203091621266683
6968366,4085,4088,2587,2048,1745203091621266683
6969366,4085,4086,2591,2051,1745203091621266683
6970366,4087,4087,2594,2055,1745203091621266683
6971366,4087,4086,2588,2058,1745203091621266683
6972366,4088,4086,2574,2057,1745203091621266683
6973366,4085,4087,2559,2053,1745203091621266683
6974366,4087,4086,2536,2043,1745203091621266683
6975366,4086,4086,2512,2030,1745203091621266683
6976366,4088,4085,2493,2016,1745203091621266683
6977367,4088,4088,2474,2001,1745203091621266683
6978367,4086,4088,2461,1979,1745203091621266683
6979367,4091,4087,2451,1957,1745203091621266683
6980367,4086,4089,2448,1939,1745203091621266683
6981367,4086,4086,2453,1925,1745203091621266683
6982367,4088,4086,2460,1917,1745203091621266683
6983367,4086,4088,2475,1916,1745203091621266683
6984367,4085,4088,2490,1917,1745203091677788563
6985367,4085,4086,2506,1924,1745203091677788563
6986367,4086,4088,2512,1931,1745203091677788563
6987367,4087,4086,2512,1938,1745203091677788563
6988367,4088,4088,2501,1947,1745203091677788563
6989368,4088,4088,2483,1953,1745203091677788563
6990368,4086,4088,2462,1962,1745203091677788563
6991368,4085,4088,2443,1970,1745203091677788563
6992368,4088,4088,2425,1979,1745203091677788563
6993368,4086,4085,2408,1988,1745203091677788563
6994368,4086,4088,2395,1992,1745203091677788563
6995368,4086,4088,2385,1994,1745203091677788563
6996368,4082,4088,2375,1996,1745203091677788563
6997368,4086,4088,2365,1997,1745203091677788563
6998368,4088,4086,2357,1996,1745203091677788563
6999370,4088,4088,2349,1992,1745203091677788563
7000368,4085,4088,2339,1989,1745203091677788563
7001369,4086,4086,2324,1984,1745203091677788563
7002369,4085,4089,2309,1980,1745203091677788563
7003369,4056,4088,2291,1980,1745203091677788563
7004369,4088,4088,2270,1980,1745203091677788563
7005369,4086,4086,2246,1986,1745203091677788563
7006369,4086,4086,2223,1987,1745203091677788563
7007369,4088,4088,2200,1987,1745203091677788563
7008369,4088,4083,2182,1993,1745203091677788563
7009369,4085,4088,2168,1994,1745203091677788563
7010369,4086,4088,2159,1996,1745203091677788563
7011369,4086,4087,2156,1997,1745203091677788563
7012369,4086,4087,2157,1996,1745203091677788563
7013370,4084,4089,2162,1993,1745203091677788563
7014370,4086,4088,2178,1988,1745203091677788563
7015370,4085,4088,2190,1988,1745203091677788563
7016370,4086,4088,2202,1980,1745203091677788563
7017370,4085,4086,2209,1979,1745203091677788563
7018370,4088,4087,2207,1976,1745203091677788563
7019370,4087,4086,2203,1976,1745203091677788563
7020370,4086,4086,2191,1973,1745203091677788563
7021370,4088,4087,2182,1977,1745203091677788563
7022370,4086,4088,2176,1978,1745203091677788563
7023370,4086,4086,2178,1980,1745203091677788563
7024370,4086,4086,2197,1981,1745203091677788563
7025371,4086,4086,2224,1986,1745203091677788563
7026371,4088,4088,2252,1989,1745203091677788563
7027371,4088,4086,2273,1993,1745203091677788563
7028371,4086,4087,2285,1998,1745203091677788563
7029371,4088,4086,2281,2003,1745203091677788563
7030371,4086,4085,2258,2009,1745203091677788563
7031371,4085,4086,2224,2014,1745203091677788563
7032371,4085,4084,2181,2025,1745203091677788563
7033371,4085,4072,2132,2032,1745203091677788563
7034371,4086,4054,2081,2034,1745203091677788563
7035371,4088,4036,2024,2037,1745203091677788563
7036372,4089,4017,1965,2038,1745203091677788563
7037372,4084,3997,1899,2037,1745203091677788563
7038372,4085,3977,1840,2034,1745203091677788563
7039372,4086,3958,1796,2032,1745203091677788563
7040372,4082,3939,1782,2027,1745203091677788563
7041372,4068,3921,1794,2020,1745203091677788563
7042372,4053,3905,1836,2009,1745203091731171356
7043372,4032,3888,1894,1995,1745203091731171356
7044372,4013,3872,1966,1984,1745203091731171356
7045372,3992,3857,2052,1973,1745203091731171356
7046372,3972,3838,2136,1969,1745203091731171356
7047372,3953,3822,2208,1968,1745203091731171356
7048372,3936,3808,2265,1964,1745203091731171356
7049373,3917,3792,2304,1963,1745203091731171356
7050373,3900,3776,2326,1958,1745203091731171356
7051373,3884,3761,2342,1953,1745203091731171356
7052373,3866,3745,2355,1947,1745203091731171356
7053373,3850,3727,2365,1938,1745203091731171356
7054373,3835,3705,2368,1929,1745203091731171356
7055374,3818,3682,2352,1917,1745203091731171356
7056373,3802,3665,2321,1910,1745203091731171356
7057373,3788,3650,2282,1902,1745203091731171356
7058373,3774,3638,2244,1897,1745203091731171356
7059373,3756,3627,2209,1899,1745203091731171356
7060373,3740,3618,2185,1899,1745203091731171356
7061374,3728,3608,2164,1899,1745203091731171356
7062374,3712,3595,2150,1902,1745203091731171356
7063374,3696,3583,2140,1905,1745203091731171356
7064374,3682,3579,2139,1916,1745203091731171356
7065374,3668,3566,2139,1932,1745203091731171356
7066374,3652,3552,2139,1953,1745203091731171356
7067374,3638,3541,2127,1973,1745203091731171356
7068374,3624,3526,2109,1993,1745203091731171356
7069374,3610,3514,2086,2012,1745203091731171356
7070374,3597,3501,2067,2024,1745203091731171356
7071374,3584,3489,2053,2047,1745203091731171356
7072374,3577,3476,2041,2044,1745203091731171356
7073375,3564,3464,2038,2042,1745203091731171356
7074375,3550,3450,2049,2036,1745203091731171356
7075375,3537,3437,2058,2025,1745203091731171356
7076375,3525,3424,2061,2008,1745203091731171356
7077375,3510,3412,2057,1994,1745203091731171356
7078375,3498,3400,2045,1986,1745203091731171356
7079375,3484,3388,2026,1982,1745203091731171356
7080375,3471,3377,2005,1980,1745203091731171356
7081375,3460,3366,1993,1978,1745203091731171356
7082375,3446,3352,1982,1973,1745203091731171356
7083375,3434,3341,1984,1973,1745203091731171356
7084375,3423,3330,1994,1976,1745203091731171356
7085376,3410,3320,2004,1982,1745203091731171356
7086376,3400,3309,2021,1992,1745203091731171356
7087376,3386,3296,2034,2001,1745203091731171356
7088376,3376,3284,2050,2008,1745203091731171356
7089376,3363,3274,2054,2013,1745203091731171356
7090376,3352,3261,2051,2024,1745203091731171356
7091376,3341,3236,2041,2027,1745203091731171356
7092376,3328,3188,2021,2032,1745203091731171356
7093376,3317,3120,1994,2032,1745203091731171356
7094376,3306,3049,1958,2030,1745203091731171356
7095376,3295,2981,1913,2026,1745203091731171356
7096376,3284,2931,1860,2023,1745203091731171356
7097377,3273,2897,1805,2018,1745203091731171356
7098377,3261,2878,1748,2016,1745203091731171356
7099377,3252,2874,1697,2016,1745203091731171356
7100377,3240,2877,1653,2014,1745203091796813725
7101377,3232,2895,1628,2013,1745203091796813725
7102377,3219,2929,1616,2016,1745203091796813725
7103377,3209,2968,1620,2014,1745203091796813725
7104377,3198,3002,1637,2013,1745203091796813725
7105377,3187,3032,1655,2013,1745203091796813725
7106377,3179,3050,1681,2012,1745203091796813725
7107377,3169,3064,1699,2013,1745203091796813725
7108377,3158,3060,1713,2014,1745203091796813725
7109379,3149,3033,1724,2018,1745203091796813725
7110378,3139,2980,1722,2020,1745203091796813725
7111378,3129,2911,1723,2025,1745203091796813725
7112378,3119,2828,1721,2030,1745203091796813725
7113378,3109,2745,1736,2038,1745203091796813725
7114378,3102,2660,1760,2042,1745203091796813725
7115378,3091,2584,1801,2044,1745203091796813725
7116378,3083,2525,1850,2042,1745203091796813725
7117378,3075,2470,1897,2039,1745203091796813725
7118378,3065,2435,1929,2036,1745203091796813725
7119378,3056,2410,1941,2034,1745203091796813725
7120378,3045,2397,1929,2034,1745203091796813725
7121379,3036,2399,1920,2032,1745203091796813725
7122379,3029,2444,1899,2034,1745203091796813725
7123379,3020,2511,1894,2037,1745203091796813725
7124379,3010,2589,1902,2043,1745203091796813725
7125379,3004,2676,1926,2050,1745203091796813725
7126379,2995,2746,1953,2054,1745203091796813725
7127379,2986,2785,1966,2058,1745203091796813725
7128379,2978,2784,1963,2060,1745203091796813725
7129379,2970,2738,1938,2060,1745203091796813725
7130379,2961,2657,1905,2057,1745203091796813725
7131379,2953,2559,1865,2045,1745203091796813725
7132379,2946,2436,1833,2038,1745203091796813725
7133380,2938,2308,1825,2030,1745203091796813725
7134380,2931,2192,1851,2021,1745203091796813725
7135380,2922,2086,1897,2012,1745203091796813725
7136380,2914,1997,1940,2005,1745203091796813725
7137380,2907,1931,1976,2003,1745203091796813725
7138380,2898,1885,1992,2004,1745203091796813725
7139380,2892,1858,1997,2006,1745203091796813725
7140380,2884,1840,2001,2009,1745203091796813725
7141380,2876,1844,2001,2005,1745203091796813725
7142380,2870,1880,2005,1997,1745203091796813725
7143380,2864,1947,2008,1989,1745203091796813725
7144380,2856,2032,2008,1981,1745203091796813725
7145381,2848,2113,2006,1977,1745203091796813725
7146381,2840,2170,2003,1979,1745203091796813725
7147381,2834,2202,2000,1981,1745203091796813725
7148381,2828,2198,1987,1989,1745203091796813725
7149381,2822,2155,1967,2001,1745203091796813725
7150381,2814,2082,1938,2013,1745203091796813725
7151381,2808,1979,1912,2027,1745203091796813725
7152381,2786,1860,1885,2035,1745203091796813725
7153381,2726,1741,1856,2043,1745203091796813725
7154381,2637,1628,1816,2049,1745203091796813725
7155381,2549,1534,1778,2051,1745203091796813725
7156381,2468,1451,1738,2052,1745203091796813725
7157382,2413,1385,1692,2048,1745203091796813725
7158382,2387,1336,1650,2055,1745203091858221862
7159382,2387,1303,1612,2036,1745203091858221862
7160382,2398,1285,1580,2029,1745203091858221862
7161382,2429,1282,1557,2025,1745203091858221862
7162382,2480,1293,1549,2019,1745203091858221862
7163382,2536,1317,1560,2015,1745203091858221862
7164382,2578,1347,1588,2005,1745203091858221862
7165382,2621,1368,1630,1998,1745203091858221862
7166382,2652,1372,1678,1987,1745203091858221862
7167382,2675,1356,1732,1980,1745203091858221862
7168382,2689,1314,1793,1971,1745203091858221862
7169383,2669,1245,1857,1964,1745203091858221862
7170383,2592,1165,1913,1956,1745203091858221862
7171383,2460,1077,1952,1953,1745203091858221862
7172384,2266,987,1953,1951,1745203091858221862
7173384,2048,896,1916,1955,1745203091858221862
7174383,1832,804,1838,1964,1745203091858221862
7175383,1644,724,1737,1976,1745203091858221862
7176383,1521,665,1601,1986,1745203091858221862
7177384,1453,626,1465,1993,1745203091858221862
7178383,1449,612,1328,1998,1745203091858221862
7179383,1506,628,1204,1995,1745203091858221862
7180383,1602,669,1096,1987,1745203091858221862
7181384,1749,730,1019,1980,1745203091858221862
7182384,1923,804,982,1981,1745203091858221862
7183384,2099,902,988,1992,1745203091858221862
7184384,2251,1030,1024,2006,1745203091858221862
7185384,2384,1164,1088,2021,1745203091858221862
7186384,2482,1283,1169,2029,1745203091858221862
7187384,2557,1374,1270,2029,1745203091858221862
7188384,2602,1429,1388,2019,1745203091858221862
7189384,2616,1445,1520,2008,1745203091858221862
7190384,2555,1424,1656,1989,1745203091858221862
7191384,2384,1367,1800,1968,1745203091858221862
7192384,2132,1282,1926,1950,1745203091858221862
7193385,1834,1188,2029,1936,1745203091858221862
7194385,1551,1099,2116,1928,1745203091858221862
7195385,1334,1028,2185,1926,1745203091858221862
7196385,1187,981,2233,1933,1745203091858221862
7197385,1108,959,2257,1943,1745203091858221862
7198385,1096,958,2253,1963,1745203091858221862
7199385,1154,974,2217,1990,1745203091858221862
7200385,1265,994,2155,2024,1745203091858221862
7201385,1436,1026,2078,2058,1745203091858221862
7202385,1641,1069,1996,2091,1745203091858221862
7203385,1865,1136,1924,2122,1745203091858221862
7204385,2075,1216,1878,2149,1745203091858221862
7205386,2253,1287,1848,2165,1745203091858221862
7206386,2396,1337,1857,2166,1745203091858221862
7207386,2507,1350,1888,2155,1745203091858221862
7208386,2578,1318,1944,2145,1745203091858221862
7209386,2599,1251,1994,2137,1745203091858221862
7210386,2532,1153,2032,2133,1745203091858221862
7211386,2346,1038,2043,2128,1745203091858221862
7212386,2062,905,2020,2122,1745203091858221862
7213386,1714,769,1971,2115,1745203091858221862
7214386,1364,632,1902,2113,1745203091858221862
7215386,1051,511,1821,2116,1745203091858221862
7216386,827,419,1730,2115,1745203091909341760
7217387,660,334,1630,2120,1745203091909341760
7218387,528,268,1535,2122,1745203091909341760
7219387,431,216,1448,2120,1745203091909341760
7220387,347,175,1386,2117,1745203091909341760
7221387,281,154,1367,2110,1745203091909341760
7222387,268,163,1395,2108,1745203091909341760
7223387,389,205,1470,2105,1745203091909341760
7224387,600,266,1566,2106,1745203091909341760
7225387,845,323,1688,2109,1745203091909341760
7226387,1052,360,1812,2116,1745203091909341760
7227387,1180,362,1928,2122,1745203091909341760
7228387,1198,329,2015,2122,1745203091909341760
7229388,1083,262,2077,2118,1745203091909341760
7230388,865,201,2109,2108,1745203091909341760
7231388,653,156,2117,2097,1745203091909341760
7232388,507,124,2108,2082,1745203091909341760
7233388,393,100,2086,2072,1745203091909341760
7234388,305,84,2058,2072,1745203091909341760
7235388,242,70,2021,2071,1745203091909341760
7236388,195,62,1976,2073,1745203091909341760
7237388,159,54,1918,2080,1745203091909341760
7238388,132,46,1844,2082,1745203091909341760
7239388,107,41,1777,2089,1745203091909341760
7240388,91,38,1705,2093,1745203091909341760
7241389,77,37,1632,2101,1745203091909341760
7242389,67,33,1561,2100,1745203091909341760
7243389,58,32,1500,2101,1745203091909341760
7244389,132,38,1431,2106,1745203091909341760
7245389,319,82,1361,2108,1745203091909341760
7246389,528,140,1286,2107,1745203091909341760
7247389,701,184,1214,2104,1745203091909341760
7248389,773,194,1158,2116,1745203091909341760
7249389,717,167,1122,2139,1745203091909341760
7250389,552,129,1108,2157,1745203091909341760
7251389,422,99,1126,2169,1745203091909341760
7252389,321,79,1179,2170,1745203091909341760
7253390,248,64,1261,2165,1745203091909341760
7254390,193,54,1362,2150,1745203091909341760
7255390,152,46,1459,2128,1745203091909341760
7256390,121,41,1537,2100,1745203091909341760
7257390,98,36,1592,2072,1745203091909341760
7258390,80,34,1598,2050,1745203091909341760
7259390,67,30,1554,2025,1745203091909341760
7260390,57,29,1480,2000,1745203091909341760
7261390,50,28,1380,1979,1745203091909341760
7262390,45,27,1272,1964,1745203091909341760
7263390,52,30,1172,1946,1745203091909341760
7264390,180,75,1095,1933,1745203091909341760
7265391,392,154,1056,1924,1745203091909341760
7266391,585,237,1058,1917,1745203091909341760
7267391,722,306,1108,1921,1745203091909341760
7268391,749,334,1202,1933,1745203091909341760
7269391,649,318,1325,1962,1745203091909341760
7270391,493,266,1462,2004,1745203091909341760
7271391,372,202,1605,2041,1745203091909341760
7272391,284,156,1765,2065,1745203091909341760
7273391,220,120,1922,2044,1745203091909341760
7274391,172,94,2067,1990,1745203091972024104
7275391,136,76,2184,1931,1745203091972024104
7276391,108,62,2255,1881,1745203091972024104
7277392,88,53,2293,1838,1745203091972024104
7278392,72,45,2301,1810,1745203091972024104
7279392,61,40,2292,1793,1745203091972024104
7280392,52,36,2277,1793,1745203091972024104
7281392,46,33,2268,1800,1745203091972024104
7282392,41,37,2262,1810,1745203091972024104
7283392,72,80,2262,1826,1745203091972024104
7284394,281,155,2270,1842,1745203091972024104
7285392,588,252,2286,1862,1745203091972024104
7286392,930,350,2299,1898,1745203091972024104
7287392,1212,430,2301,1938,1745203091972024104
7288392,1382,481,2266,1988,1745203091972024104
7289393,1427,498,2192,2022,1745203091972024104
7290393,1341,488,2089,2034,1745203091972024104
7291393,1154,451,1974,2029,1745203091972024104
7292393,894,388,1871,2017,1745203091972024104
7293393,680,310,1770,2011,1745203091972024104
7294393,522,237,1670,2022,1745203091972024104
7295393,413,181,1579,2040,1745203091972024104
7296393,321,142,1520,2042,1745203091972024104
7297393,254,112,1483,2038,1745203091972024104
7298393,201,90,1467,2042,1745203091972024104
7299393,161,74,1461,2064,1745203091972024104
7300393,129,61,1445,2131,1745203091972024104
7301394,106,64,1406,2249,1745203091972024104
7302394,86,110,1362,2360,1745203091972024104
7303394,142,197,1333,2432,1745203091972024104
7304394,323,309,1356,2466,1745203091972024104
7305394,554,422,1442,2475,1745203091972024104
7306394,787,513,1566,2460,1745203091972024104
7307394,970,588,1708,2422,1745203091972024104
7308394,1067,631,1833,2370,1745203091972024104
7309394,1059,640,1932,2320,1745203091972024104
7310394,946,621,1996,2273,1745203091972024104
7311394,761,585,2026,2228,1745203091972024104
7312395,571,540,2033,2187,1745203091972024104
7313395,444,504,2026,2149,1745203091972024104
7314395,341,466,2002,2122,1745203091972024104
7315395,266,443,1964,2089,1745203091972024104
7316395,209,441,1932,2025,1745203091972024104
7317395,165,466,1924,1939,1745203091972024104
7318395,132,523,1933,1859,1745203091972024104
7319395,105,628,1955,1803,1745203091972024104
7320395,86,745,1994,1778,1745203091972024104
7321395,73,864,2029,1794,1745203091972024104
7322395,129,1004,2058,1828,1745203091972024104
7323395,324,1169,2074,1859,1745203091972024104
7324396,603,1346,2062,1891,1745203091972024104
7325396,912,1506,2027,1920,1745203091972024104
7326396,1182,1632,1984,1953,1745203091972024104
7327396,1366,1729,1947,1964,1745203091972024104
7328396,1437,1776,1921,1971,1745203091972024104
7329396,1380,1770,1900,1974,1745203091972024104
7330396,1221,1716,1887,1976,1745203091972024104
7331396,1006,1624,1877,1980,1745203091972024104
7332396,769,1508,1874,1993,1745203092040956755
7333396,589,1380,1885,2002,1745203092040956755
7334396,464,1282,1898,2001,1745203092040956755
7335396,361,1218,1901,1981,1745203092040956755
7336396,282,1174,1887,1955,1745203092040956755
7337397,222,1139,1865,1908,1745203092040956755
7338397,177,1110,1849,1856,1745203092040956755
7339397,142,1088,1830,1817,1745203092040956755
7340397,152,1070,1812,1800,1745203092040956755
7341397,260,1071,1799,1832,1745203092040956755
7342397,484,1090,1791,1899,1745203092040956755
7343397,797,1126,1791,1946,1745203092040956755
7344397,1188,1180,1798,1965,1745203092040956755
7345397,1593,1233,1811,1985,1745203092040956755
7346397,1979,1274,1805,2025,1745203092040956755
7347397,2290,1285,1801,2104,1745203092040956755
7348397,2482,1250,1787,2188,1745203092040956755
7349398,2533,1158,1780,2260,1745203092040956755
7350398,2449,1031,1789,2304,1745203092040956755
7351398,2269,896,1810,2301,1745203092040956755
7352398,2018,765,1833,2266,1745203092040956755
7353398,1742,642,1860,2203,1745203092040956755
7354398,1474,538,1881,2126,1745203092040956755
7355398,1220,458,1882,2037,1745203092040956755
7356398,1000,395,1869,1947,1745203092040956755
7357398,816,392,1850,1883,1745203092040956755
7358398,667,454,1835,1865,1745203092040956755
7359398,556,541,1828,1864,1745203092040956755
7360398,488,627,1832,1857,1745203092040956755
7361399,450,701,1836,1847,1745203092040956755
7362399,483,778,1839,1856,1745203092040956755
7363399,594,866,1845,1873,1745203092040956755
7364399,767,960,1857,1896,1745203092040956755
7365399,939,1046,1872,1921,1745203092040956755
7366399,1061,1113,1890,1947,1745203092040956755
7367399,1105,1153,1912,1979,1745203092040956755
7368399,1042,1160,1932,2008,1745203092040956755
7369399,878,1126,1948,2026,1745203092040956755
7370399,668,1053,1957,2029,1745203092040956755
7371399,511,945,1958,2023,1745203092040956755
7372399,398,818,1955,2031,1745203092040956755
7373400,314,695,1945,2058,1745203092040956755
7374400,250,582,1927,2097,1745203092040956755
7375400,202,490,1905,2154,1745203092040956755
7376400,163,398,1888,2220,1745203092040956755
7377400,145,322,1866,2282,1745203092040956755
7378400,109,266,1848,2326,1745203092040956755
7379400,90,234,1828,2349,1745203092040956755
7380400,76,227,1810,2361,1745203092040956755
7381400,65,246,1798,2361,1745203092040956755
7382400,56,299,1788,2357,1745203092040956755
7383400,49,387,1784,2354,1745203092040956755
7384400,44,496,1784,2344,1745203092040956755
7385401,76,587,1790,2319,1745203092040956755
7386401,182,663,1800,2292,1745203092040956755
7387401,325,713,1811,2269,1745203092040956755
7388401,429,736,1818,2251,1745203092040956755
7389401,424,740,1824,2234,1745203092040956755
7390401,321,728,1828,2220,1745203092087057949
7391401,241,705,1820,2203,1745203092087057949
7392401,184,669,1811,2185,1745203092087057949
7393401,143,620,1799,2164,1745203092087057949
7394401,112,563,1782,2150,1745203092087057949
7395401,90,510,1769,2139,1745203092087057949
7396401,73,436,1752,2133,1745203092087057949
7397402,60,360,1735,2134,1745203092087057949
7398402,52,293,1718,2142,1745203092087057949
7399402,45,248,1706,2156,1745203092087057949
7400402,41,227,1697,2166,1745203092087057949
7401402,36,234,1693,2168,1745203092087057949
7402402,33,274,1693,2170,1745203092087057949
7403402,32,349,1699,2191,1745203092087057949
7404402,73,445,1711,2240,1745203092087057949
7405402,207,537,1730,2306,1745203092087057949
7406402,376,629,1753,2365,1745203092087057949
7407402,512,701,1776,2398,1745203092087057949
7408402,584,747,1792,2410,1745203092087057949
7409403,562,759,1805,2418,1745203092087057949
7410403,465,746,1814,2424,1745203092087057949
7411403,347,713,1820,2418,1745203092087057949
7412403,264,668,1820,2408,1745203092087057949
7413403,203,620,1821,2391,1745203092087057949
7414403,157,580,1821,2374,1745203092087057949
7415403,123,556,1822,2354,1745203092087057949
7416403,97,552,1822,2334,1745203092087057949
7417403,80,565,1821,2313,1745203092087057949
7418403,66,593,1821,2291,1745203092087057949
7419403,56,635,1820,2269,1745203092087057949
7420403,48,686,1819,2248,1745203092087057949
7421404,100,749,1816,2222,1745203092087057949
7422404,274,827,1814,2208,1745203092087057949
7423404,546,923,1818,2194,1745203092087057949
7424405,893,1029,1822,2184,1745203092087057949
7425404,1250,1134,1828,2176,1745203092087057949
7426404,1579,1232,1835,2170,1745203092087057949
7427404,1858,1313,1841,2165,1745203092087057949
7428404,2051,1373,1852,2160,1745203092087057949
7429404,2136,1410,1860,2149,1745203092087057949
7430404,2114,1423,1865,2133,1745203092087057949
7431404,2004,1418,1864,2112,1745203092087057949
7432404,1828,1398,1853,2094,1745203092087057949
7433405,1612,1370,1834,2073,1745203092087057949
7434405,1401,1339,1810,2048,1745203092087057949
7435405,1208,1315,1784,2022,1745203092087057949
7436405,1054,1301,1758,2010,1745203092087057949
7437405,947,1302,1741,2008,1745203092087057949
7438405,886,1316,1733,2013,1745203092087057949
7439405,866,1336,1739,2019,1745203092087057949
7440405,881,1364,1753,2025,1745203092087057949
7441405,940,1400,1778,2025,1745203092087057949
7442405,1064,1452,1804,2019,1745203092087057949
7443405,1259,1518,1838,2009,1745203092087057949
7444405,1502,1586,1873,1992,1745203092087057949
7445406,1741,1665,1900,1972,1745203092087057949
7446406,1953,1737,1916,1953,1745203092087057949
7447406,2102,1796,1917,1933,1745203092087057949
7448406,2169,1837,1904,1908,1745203092152347665
7449406,2145,1850,1882,1882,1745203092152347665
7450406,2037,1835,1858,1856,1745203092152347665
7451406,1877,1797,1836,1835,1745203092152347665
7452406,1683,1743,1818,1819,1745203092152347665
7453406,1478,1680,1798,1811,1745203092152347665
7454406,1275,1619,1781,1809,1745203092152347665
7455406,1101,1563,1762,1818,1745203092152347665
7456406,972,1554,1736,1838,1745203092152347665
7457407,890,1555,1689,1863,1745203092152347665
7458407,859,1586,1637,1891,1745203092152347665
7459407,869,1634,1597,1921,1745203092152347665
7460407,915,1682,1590,1944,1745203092152347665
7461407,995,1736,1629,1963,1745203092152347665
7462407,1128,1800,1707,1977,1745203092152347665
7463407,1320,1874,1806,1988,1745203092152347665
7464407,1542,1941,1900,2002,1745203092152347665
7465407,1774,2003,1970,2001,1745203092152347665
7466407,1964,2045,2016,1999,1745203092152347665
7467407,2101,2064,2017,2003,1745203092152347665
7468407,2147,2058,1973,2014,1745203092152347665
7469408,2101,2029,1898,2029,1745203092152347665
7470408,1974,1988,1817,2044,1745203092152347665
7471408,1803,1939,1753,2059,1745203092152347665
7472408,1598,1878,1712,2075,1745203092152347665
7473408,1380,1802,1688,2101,1745203092152347665
7474408,1169,1723,1672,2137,1745203092152347665
7475408,982,1651,1662,2161,1745203092152347665
7476408,840,1597,1657,2188,1745203092152347665
7477408,749,1565,1643,2216,1745203092152347665
7478408,707,1552,1608,2238,1745203092152347665
7479408,710,1555,1572,2254,1745203092152347665
7480408,752,1569,1559,2263,1745203092152347665
7481409,832,1595,1590,2262,1745203092152347665
7482409,968,1638,1676,2253,1745203092152347665
7483409,1162,1698,1790,2236,1745203092152347665
7484409,1388,1762,1906,2214,1745203092152347665
7485409,1598,1819,2005,2195,1745203092152347665
7486409,1774,1856,2068,2174,1745203092152347665
7487409,1882,1864,2112,2157,1745203092152347665
7488409,1906,1841,2148,2139,1745203092152347665
7489409,1837,1793,2180,2120,1745203092152347665
7490409,1698,1729,2213,2100,1745203092152347665
7491409,1522,1653,2241,2085,1745203092152347665
7492409,1306,1580,2276,2072,1745203092152347665
7493410,1076,1507,2328,2059,1745203092152347665
7494410,857,1430,2374,2048,1745203092152347665
7495410,669,1366,2389,2041,1745203092152347665
7496410,529,1320,2370,2043,1745203092152347665
7497410,449,1295,2330,2054,1745203092152347665
7498410,412,1296,2272,2070,1745203092152347665
7499410,429,1317,2198,2090,1745203092152347665
7500410,496,1356,2128,2104,1745203092152347665
7501410,601,1411,2075,2114,1745203092152347665
7502410,785,1486,2057,2118,1745203092152347665
7503410,1041,1573,2081,2122,1745203092152347665
7504410,1347,1681,2127,2121,1745203092152347665
7505411,1657,1785,2163,2117,1745203092152347665
7506411,1952,1880,2161,2110,1745203092203970527
7507411,2196,1953,2120,2102,1745203092203970527
7508411,2357,2002,2082,2093,1745203092203970527
7509411,2428,2023,2060,2090,1745203092203970527
7510411,2422,2021,2058,2091,1745203092203970527
7511411,2355,2001,2077,2091,1745203092203970527
7512411,2232,1965,2107,2093,1745203092203970527
7513411,2066,1918,2140,2091,1745203092203970527
7514411,1888,1869,2169,2081,1745203092203970527
7515411,1725,1824,2183,2060,1745203092203970527
7516411,1596,1789,2177,2027,1745203092203970527
7517412,1516,1761,2172,1988,1745203092203970527
7518412,1468,1739,2198,1947,1745203092203970527
7519412,1460,1725,2252,1916,1745203092203970527
7520412,1489,1719,2320,1898,1745203092203970527
7521412,1554,1728,2383,1893,1745203092203970527
7522412,1699,1761,2408,1901,1745203092203970527
7523414,1924,1822,2389,1918,1745203092203970527
7524412,2207,1903,2347,1944,1745203092203970527
7525412,2494,1988,2298,1973,1745203092203970527
7526412,2723,2068,2244,2004,1745203092203970527
7527412,2898,2126,2170,2034,1745203092203970527
7528412,2988,2161,2088,2059,1745203092203970527
7529413,2977,2171,1977,2072,1745203092203970527
7530413,2868,2155,1866,2077,1745203092203970527
7531413,2688,2120,1768,2078,1745203092203970527
7532413,2460,2068,1693,2078,1745203092203970527
7533413,2185,1989,1663,2067,1745203092203970527
7534413,1903,1916,1710,2050,1745203092203970527
7535413,1644,1845,1818,2028,1745203092203970527
7536413,1428,1783,1967,2013,1745203092203970527
7537413,1251,1728,2112,2004,1745203092203970527
7538413,1117,1680,2225,1997,1745203092203970527
7539413,1024,1645,2267,1994,1745203092203970527
7540413,970,1619,2206,1995,1745203092203970527
7541414,962,1606,2077,1997,1745203092203970527
7542414,1031,1613,1942,1999,1745203092203970527
7543414,1185,1640,1849,2003,1745203092203970527
7544414,1393,1680,1817,2005,1745203092203970527
7545414,1600,1725,1851,2004,1745203092203970527
7546414,1774,1764,1954,2002,1745203092203970527
7547414,1881,1789,2110,1996,1745203092203970527
7548414,1901,1789,2290,1990,1745203092203970527
7549414,1828,1764,2447,1987,1745203092203970527
7550414,1688,1718,2557,1988,1745203092203970527
7551414,1513,1660,2600,1990,1745203092203970527
7552414,1305,1588,2594,1989,1745203092203970527
7553415,1082,1516,2553,1986,1745203092203970527
7554415,872,1432,2473,1988,1745203092203970527
7555415,705,1353,2378,2003,1745203092203970527
7556415,581,1284,2278,2010,1745203092203970527
7557415,511,1228,2191,1996,1745203092203970527
7558415,480,1184,2135,1971,1745203092203970527
7559415,482,1153,2118,1943,1745203092203970527
7560415,511,1133,2127,1922,1745203092203970527
7561415,568,1131,2147,1914,1745203092203970527
7562415,685,1149,2171,1913,1745203092203970527
7563415,865,1192,2203,1916,1745203092203970527
7564415,1088,1249,2237,1926,1745203092268253846
7565416,1314,1307,2270,1944,1745203092268253846
7566416,1503,1352,2307,1960,1745203092268253846
7567416,1625,1373,2336,1980,1745203092268253846
7568416,1672,1373,2345,1998,1745203092268253846
7569416,1626,1348,2336,2012,1745203092268253846
7570416,1506,1304,2304,2020,1745203092268253846
7571416,1320,1245,2255,2026,1745203092268253846
7572416,1081,1168,2210,2034,1745203092268253846
7573416,827,1080,2169,2048,1745203092268253846
7574416,637,996,2144,2069,1745203092268253846
7575416,503,922,2132,2110,1745203092268253846
7576416,396,860,2129,2154,1745203092268253846
7577417,315,813,2114,2185,1745203092268253846
7578417,252,781,2086,2193,1745203092268253846
7579417,205,757,2044,2193,1745203092268253846
7580417,166,741,1985,2180,1745203092268253846
7581417,137,742,1904,2165,1745203092268253846
7582418,112,774,1812,2149,1745203092268253846
7583417,93,832,1725,2128,1745203092268253846
7584417,101,900,1661,2096,1745203092268253846
7585417,165,963,1638,2067,1745203092268253846
7586419,244,1014,1660,2037,1745203092268253846
7587419,303,1047,1726,2017,1745203092268253846
7588417,329,1064,1815,2006,1745203092268253846
7589418,314,1066,1913,1989,1745203092268253846
7590418,267,1056,2005,1977,1745203092268253846
7591418,206,1042,2088,1962,1745203092268253846
7592418,157,1022,2155,1961,1745203092268253846
7593418,123,1000,2206,1975,1745203092268253846
7594418,98,979,2244,1990,1745203092268253846
7595418,80,963,2274,2000,1745203092268253846
7596418,66,962,2307,2012,1745203092268253846
7597418,57,972,2332,2024,1745203092268253846
7598418,50,988,2348,2032,1745203092268253846
7599418,44,1004,2349,2038,1745203092268253846
7600418,48,1018,2337,2042,1745203092268253846
7601419,117,1037,2308,2043,1745203092268253846
7602419,286,1070,2276,2042,1745203092268253846
7603419,534,1123,2243,2038,1745203092268253846
7604419,837,1201,2216,2040,1745203092268253846
7605419,1165,1286,2194,2042,1745203092268253846
7606419,1473,1373,2184,2053,1745203092268253846
7607419,1715,1450,2178,2054,1745203092268253846
7608419,1913,1509,2174,2062,1745203092268253846
7609419,2034,1538,2166,2064,1745203092268253846
7610419,2014,1547,2159,2067,1745203092268253846
7611419,1840,1532,2147,2072,1745203092268253846
7612419,1557,1474,2130,2077,1745203092268253846
7613420,1231,1395,2107,2085,1745203092268253846
7614420,939,1306,2080,2090,1745203092268253846
7615420,728,1229,2051,2091,1745203092268253846
7616420,568,1177,2025,2094,1745203092268253846
7617420,454,1178,2004,2095,1745203092268253846
7618420,358,1245,1987,2100,1745203092268253846
7619420,283,1365,1976,2106,1745203092268253846
7620420,226,1505,1965,2108,1745203092268253846
7621420,181,1628,1958,2109,1745203092268253846
7622420,147,1750,1953,2104,1745203092325898580
7623420,147,1868,1949,2101,1745203092325898580
7624420,238,1974,1948,2088,1745203092325898580
7625421,394,2065,1946,2080,1745203092325898580
7626421,558,2130,1945,2074,1745203092325898580
7627421,714,2164,1945,2078,1745203092325898580
7628421,830,2170,1942,2090,1745203092325898580
7629421,892,2144,1936,2106,1745203092325898580
7630421,898,2080,1928,2124,1745203092325898580
7631421,861,1982,1918,2133,1745203092325898580
7632421,785,1870,1908,2140,1745203092325898580
7633421,700,1750,1898,2139,1745203092325898580
7634421,628,1640,1889,2134,1745203092325898580
7635421,586,1550,1883,2118,1745203092325898580
7636421,585,1493,1872,2104,1745203092325898580
7637422,627,1448,1856,2085,1745203092325898580
7638422,701,1420,1838,2066,1745203092325898580
7639422,802,1408,1818,2043,1745203092325898580
7640422,929,1408,1803,2017,1745203092325898580
7641422,1081,1427,1791,1997,1745203092325898580
7642423,1290,1470,1786,1982,1745203092325898580
7643422,1551,1534,1783,1978,1745203092325898580
7644422,1866,1597,1786,1977,1745203092325898580
7645422,2180,1666,1794,1983,1745203092325898580
7646422,2444,1722,1809,1988,1745203092325898580
7647422,2625,1755,1818,1995,1745203092325898580
7648422,2721,1763,1825,1996,1745203092325898580
7649423,2708,1747,1828,1997,1745203092325898580
7650423,2597,1714,1834,1997,1745203092325898580
7651423,2436,1668,1833,1993,1745203092325898580
7652423,2224,1608,1830,1981,1745203092325898580
7653423,1987,1541,1825,1971,1745203092325898580
7654423,1762,1486,1813,1958,1745203092325898580
7655423,1579,1432,1804,1945,1745203092325898580
7656423,1456,1390,1796,1930,1745203092325898580
7657423,1379,1365,1792,1922,1745203092325898580
7658423,1352,1356,1790,1921,1745203092325898580
7659423,1363,1358,1787,1928,1745203092325898580
7660423,1405,1376,1787,1944,1745203092325898580
7661424,1476,1408,1787,1962,1745203092325898580
7662424,1590,1461,1787,1978,1745203092325898580
7663424,1771,1535,1791,1995,1745203092325898580
7664424,1989,1625,1800,2011,1745203092325898580
7665424,2206,1718,1813,2025,1745203092325898580
7666424,2381,1803,1825,2034,1745203092325898580
7667424,2497,1865,1839,2040,1745203092325898580
7668424,2536,1902,1848,2044,1745203092325898580
7669424,2493,1903,1857,2043,1745203092325898580
7670424,2377,1867,1862,2048,1745203092325898580
7671424,2214,1803,1865,2053,1745203092325898580
7672424,2008,1723,1862,2067,1745203092325898580
7673425,1780,1637,1859,2084,1745203092325898580
7674425,1552,1558,1853,2104,1745203092325898580
7675425,1357,1502,1850,2129,1745203092325898580
7676425,1200,1456,1843,2157,1745203092325898580
7677425,1094,1426,1840,2184,1745203092325898580
7678425,1044,1412,1833,2210,1745203092325898580
7679425,1048,1413,1832,2230,1745203092325898580
7680425,1099,1425,1828,2241,1745203092388835765
7681425,1190,1452,1826,2244,1745203092388835765
7682425,1341,1499,1827,2241,1745203092388835765
7683425,1552,1560,1829,2231,1745203092388835765
7684425,1813,1637,1836,2214,1745203092388835765
7685426,2073,1716,1845,2198,1745203092388835765
7686426,2286,1779,1859,2164,1745203092388835765
7687426,2426,1820,1872,2128,1745203092388835765
7688426,2473,1833,1885,2089,1745203092388835765
7689426,2429,1820,1898,2050,1745203092388835765
7690426,2310,1782,1904,2015,1745203092388835765
7691426,2147,1725,1906,1992,1745203092388835765
7692426,1946,1653,1902,1976,1745203092388835765
7693426,1726,1576,1896,1966,1745203092388835765
7694426,1516,1512,1873,1963,1745203092388835765
7695426,1325,1451,1853,1965,1745203092388835765
7696426,1179,1411,1834,1966,1745203092388835765
7697427,1075,1386,1821,1969,1745203092388835765
7698427,1002,1371,1806,1970,1745203092388835765
7699427,942,1359,1797,1972,1745203092388835765
7700427,888,1348,1788,1976,1745203092388835765
7701427,842,1344,1780,1985,1745203092388835765
7702427,843,1355,1778,1991,1745203092388835765
7703427,921,1391,1782,2000,1745203092388835765
7704427,1068,1444,1793,2009,1745203092388835765
7705427,1252,1505,1804,2022,1745203092388835765
7706427,1444,1555,1822,2031,1745203092388835765
7707427,1618,1606,1837,2040,1745203092388835765
7708427,1776,1651,1856,2037,1745203092388835765
7709428,1898,1689,1870,2033,1745203092388835765
7710428,1990,1717,1884,2027,1745203092388835765
7711428,2041,1737,1893,2020,1745203092388835765
7712428,2051,1745,1901,2015,1745203092388835765
7713429,2003,1741,1904,2010,1745203092388835765
7714428,1940,1737,1916,2008,1745203092388835765
7715428,1886,1732,1928,2016,1745203092388835765
7716428,1860,1735,1945,2030,1745203092388835765
7717428,1870,1745,1962,2042,1745203092388835765
7718428,1916,1760,1981,2048,1745203092388835765
7719428,2004,1786,1998,2035,1745203092388835765
7720428,2125,1821,2011,2017,1745203092388835765
7721429,2264,1866,2018,1996,1745203092388835765
7722429,2446,1922,2026,1982,1745203092388835765
7723429,2672,1992,2028,1972,1745203092388835765
7724429,2933,2070,2036,1969,1745203092388835765
7725429,3182,2144,2048,1977,1745203092388835765
7726429,3379,2201,2056,1993,1745203092388835765
7727429,3500,2234,2067,2009,1745203092388835765
7728429,3532,2242,2074,2019,1745203092388835765
7729429,3476,2227,2077,2029,1745203092388835765
7730429,3350,2193,2075,2038,1745203092388835765
7731429,3180,2148,2067,2059,1745203092388835765
7732429,2974,2093,2053,2078,1745203092388835765
7733430,2752,2027,2030,2101,1745203092388835765
7734430,2540,1963,2004,2124,1745203092388835765
7735430,2349,1907,1977,2144,1745203092388835765
7736430,2202,1866,1950,2153,1745203092388835765
7737430,2104,1842,1926,2156,1745203092388835765
7738430,2053,1833,1905,2153,1745203092437352093
7739430,2038,1837,1889,2147,1745203092437352093
7740430,2062,1858,1880,2141,1745203092437352093
7741430,2118,1893,1876,2134,1745203092437352093
7742430,2227,1949,1878,2131,1745203092437352093
7743430,2394,2021,1885,2130,1745203092437352093
7744430,2585,2101,1900,2130,1745203092437352093
7745431,2778,2174,1918,2133,1745203092437352093
7746431,2923,2231,1938,2130,1745203092437352093
7747431,3000,2268,1954,2125,1745203092437352093
7748431,2993,2282,1966,2118,1745203092437352093
7749431,2899,2281,1972,2118,1745203092437352093
7750431,2744,2266,1976,2122,1745203092437352093
7751431,2558,2236,1979,2125,1745203092437352093
7752431,2335,2189,1982,2129,1745203092437352093
7753431,2092,2136,1985,2126,1745203092437352093
7754431,1854,2076,1988,2125,1745203092437352093
7755431,1646,2025,1992,2120,1745203092437352093
7756431,1486,1987,1997,2115,1745203092437352093
7757432,1360,1959,2002,2110,1745203092437352093
7758432,1275,1938,2006,2107,1745203092437352093
7759432,1224,1924,2004,2104,1745203092437352093
7760432,1201,1916,1993,2108,1745203092437352093
7761432,1209,1925,1985,2109,1745203092437352093
7762432,1271,1960,1973,2110,1745203092437352093
7763432,1392,2012,1968,2104,1745203092437352093
7764432,1550,2074,1971,2108,1745203092437352093
7765432,1717,2131,1971,2104,1745203092437352093
7766432,1857,2171,1972,2100,1745203092437352093
7767432,1942,2200,1972,2101,1745203092437352093
7768432,1956,2207,1976,2105,1745203092437352093
7769433,1897,2202,1977,2108,1745203092437352093
7770433,1778,2187,1972,2110,1745203092437352093
7771433,1624,2161,1971,2106,1745203092437352093
7772433,1451,2119,1966,2094,1745203092437352093
7773433,1253,2067,1964,2070,1745203092437352093
7774433,1062,2008,1967,2038,1745203092437352093
7775433,896,1953,1976,2011,1745203092437352093
7776433,761,1906,1978,1990,1745203092437352093
7777433,667,1865,1965,1974,1745203092437352093
7778433,613,1835,1938,1965,1745203092437352093
7779433,597,1813,1905,1968,1745203092437352093
7780433,614,1802,1872,1981,1745203092437352093
7781434,672,1804,1834,1996,1745203092437352093
7782434,782,1827,1789,2008,1745203092437352093
7783434,955,1874,1738,2016,1745203092437352093
7784434,1171,1937,1700,2019,1745203092437352093
7785434,1389,2004,1701,2018,1745203092437352093
7786434,1569,2064,1736,2015,1745203092437352093
7787434,1704,2104,1787,2019,1745203092437352093
7788434,1776,2117,1843,2028,1745203092437352093
7789434,1776,2101,1908,2041,1745203092437352093
7790434,1705,2062,1972,2058,1745203092437352093
7791434,1583,2007,2016,2078,1745203092437352093
7792434,1434,1947,2029,2093,1745203092437352093
7793435,1252,1874,2018,2106,1745203092437352093
7794435,1072,1820,1978,2112,1745203092437352093
7795435,916,1770,1918,2116,1745203092437352093
7796435,805,1734,1849,2118,1745203092495803902
7797435,755,1718,1780,2115,1745203092495803902
7798435,770,1724,1737,2113,1745203092495803902
7799435,850,1750,1741,2106,1745203092495803902
7800435,974,1792,1794,2097,1745203092495803902
7801435,1131,1848,1886,2084,1745203092495803902
7802435,1329,1921,1997,2072,1745203092495803902
7803435,1574,2012,2107,2066,1745203092495803902
7804435,1857,2112,2182,2058,1745203092495803902
7805436,2136,2205,2206,2057,1745203092495803902
7806436,2385,2286,2178,2052,1745203092495803902
7807436,2588,2351,2115,2054,1745203092495803902
7808436,2748,2402,2041,2056,1745203092495803902
7809436,2850,2445,1984,2056,1745203092495803902
7810436,2908,2482,1953,2053,1745203092495803902
7811436,2945,2514,1966,2043,1745203092495803902
7812436,2957,2537,2030,2037,1745203092495803902
7813436,2929,2549,2132,2032,1745203092495803902
7814436,2889,2559,2244,2028,1745203092495803902
7815436,2859,2571,2322,2026,1745203092495803902
7816436,2853,2594,2348,2029,1745203092495803902
7817437,2872,2624,2324,2033,1745203092495803902
7818437,2921,2653,2266,2037,1745203092495803902
7819437,3004,2694,2196,2036,1745203092495803902
7820437,3107,2739,2146,2023,1745203092495803902
7821437,3238,2792,2140,1995,1745203092495803902
7822437,3414,2864,2186,1961,1745203092495803902
7823437,3595,2957,2268,1925,1745203092495803902
7824437,3734,3065,2370,1901,1745203092495803902
7825437,3833,3174,2473,1889,1745203092495803902
7826437,3905,3272,2554,1881,1745203092495803902
7827437,3955,3343,2586,1883,1745203092495803902
7828437,3993,3385,2574,1891,1745203092495803902
7829438,4018,3393,2521,1906,1745203092495803902
7830438,4035,3372,2428,1931,1745203092495803902
7831439,4041,3325,2340,1963,1745203092495803902
7832438,3930,3260,2286,1995,1745203092495803902
7833438,3692,3184,2276,2030,1745203092495803902
7834438,3407,3104,2307,2061,1745203092495803902
7835438,3115,3026,2380,2084,1745203092495803902
7836438,2860,2956,2468,2098,1745203092495803902
7837438,2658,2891,2539,2110,1745203092495803902
7838438,2510,2837,2559,2122,1745203092495803902
7839438,2390,2790,2536,2129,1745203092495803902
7840438,2299,2750,2466,2128,1745203092495803902
7841439,2234,2724,2381,2123,1745203092495803902
7842439,2226,2721,2308,2121,1745203092495803902
7843439,2296,2736,2258,2118,1745203092495803902
7844439,2421,2752,2234,2117,1745203092495803902
7845439,2546,2745,2227,2115,1745203092495803902
7846439,2612,2718,2228,2107,1745203092495803902
7847439,2606,2672,2229,2093,1745203092495803902
7848439,2517,2606,2204,2076,1745203092495803902
7849439,2333,2527,2120,2059,1745203092495803902
7850439,2101,2425,1993,2037,1745203092495803902
7851439,1851,2314,1882,2022,1745203092495803902
7852439,1569,2195,1818,2013,1745203092495803902
7853440,1272,2067,1806,2016,1745203092495803902
7854440,995,1940,1851,2022,1745203092560327480
7855440,787,1824,1936,2030,1745203092560327480
7856440,626,1722,2041,2029,1745203092560327480
7857440,510,1640,2155,2024,1745203092560327480
7858440,410,1576,2257,2012,1745203092560327480
7859440,328,1534,2326,2006,1745203092560327480
7860440,265,1498,2339,2011,1745203092560327480
7861440,216,1476,2298,2029,1745203092560327480
7862440,212,1476,2209,2048,1745203092560327480
7863440,316,1507,2096,2051,1745203092560327480
7864440,506,1548,1987,2056,1745203092560327480
7865441,712,1600,1900,2069,1745203092560327480
7866441,902,1642,1831,2090,1745203092560327480
7867441,1040,1660,1773,2115,1745203092560327480
7868441,1104,1652,1737,2136,1745203092560327480
7869441,1084,1619,1731,2154,1745203092560327480
7870441,982,1563,1753,2163,1745203092560327480
7871441,826,1500,1786,2172,1745203092560327480
7872441,635,1417,1811,2179,1745203092560327480
7873441,491,1332,1821,2180,1745203092560327480
7874442,378,1248,1795,2179,1745203092560327480
7875441,294,1172,1733,2177,1745203092560327480
7876441,232,1112,1678,2174,1745203092560327480
7877442,182,1066,1655,2178,1745203092560327480
7878442,149,1036,1677,2180,1745203092560327480
7879442,122,1017,1744,2173,1745203092560327480
7880442,102,1006,1854,2153,1745203092560327480
7881442,85,1001,1993,2126,1745203092560327480
7882442,109,1005,2111,2090,1745203092560327480
7883442,250,1016,2166,2057,1745203092560327480
7884442,478,1028,2157,2030,1745203092560327480
7885442,728,1036,2107,2006,1745203092560327480
7886442,957,1040,2053,1992,1745203092560327480
7887442,1130,1035,2022,1985,1745203092560327480
7888442,1219,1019,2022,1981,1745203092560327480
7889443,1225,991,2043,1984,1745203092560327480
7890443,1146,958,2070,1993,1745203092560327480
7891443,1009,918,2094,2004,1745203092560327480
7892443,828,869,2112,2014,1745203092560327480
7893443,632,814,2126,2022,1745203092560327480
7894443,492,762,2137,2027,1745203092560327480
7895443,379,714,2134,2033,1745203092560327480
7896443,296,676,2116,2048,1745203092560327480
7897443,232,660,2085,2061,1745203092560327480
7898443,185,663,2032,2079,1745203092560327480
7899443,147,691,1967,2096,1745203092560327480
7900443,146,747,1891,2103,1745203092560327480
7901444,217,830,1801,2109,1745203092560327480
7902444,379,945,1693,2107,1745203092560327480
7903444,622,1086,1605,2096,1745203092560327480
7904444,928,1233,1558,2076,1745203092560327480
7905444,1242,1372,1535,2053,1745203092560327480
7906444,1510,1489,1539,2027,1745203092560327480
7907444,1702,1568,1580,2004,1745203092560327480
7908444,1809,1622,1674,1979,1745203092560327480
7909444,1814,1641,1827,1950,1745203092560327480
7910444,1723,1630,2018,1918,1745203092560327480
7911444,1559,1594,2205,1882,1745203092560327480
7912444,1348,1537,2340,1849,1745203092614712660
7913445,1096,1459,2412,1825,1745203092614712660
7914445,845,1363,2429,1812,1745203092614712660
7915445,654,1262,2412,1808,1745203092614712660
7916445,511,1174,2381,1818,1745203092614712660
7917445,407,1104,2363,1833,1745203092614712660
7918445,331,1058,2364,1851,1745203092614712660
7919445,315,1039,2390,1870,1745203092614712660
7920445,353,1040,2449,1882,1745203092614712660
7921445,441,1067,2521,1888,1745203092614712660
7922445,585,1125,2579,1889,1745203092614712660
7923445,809,1218,2619,1893,1745203092614712660
7924445,1081,1330,2620,1898,1745203092614712660
7925446,1356,1447,2584,1899,1745203092614712660
7926446,1593,1537,2534,1899,1745203092614712660
7927446,1793,1611,2458,1901,1745203092614712660
7928446,1943,1652,2366,1917,1745203092614712660
7929446,2017,1659,2257,1924,1745203092614712660
7930446,1981,1628,2141,1942,1745203092614712660
7931446,1840,1565,2033,1961,1745203092614712660
7932446,1625,1486,1950,1980,1745203092614712660
7933447,1382,1393,1897,1995,1745203092614712660
7934447,1132,1308,1873,2008,1745203092614712660
7935446,909,1241,1880,2022,1745203092614712660
7936446,740,1201,1915,2040,1745203092614712660
7937447,634,1188,1967,2053,1745203092614712660
7938447,589,1196,2013,2061,1745203092614712660
7939447,592,1220,2053,2062,1745203092614712660
7940447,618,1254,2082,2057,1745203092614712660
7941447,659,1291,2106,2057,1745203092614712660
7942447,744,1349,2145,2061,1745203092614712660
7943447,879,1426,2172,2065,1745203092614712660
7944447,1053,1520,2190,2076,1745203092614712660
7945447,1222,1612,2193,2088,1745203092614712660
7946447,1358,1699,2172,2101,1745203092614712660
7947447,1449,1760,2133,2107,1745203092614712660
7948447,1493,1791,2086,2114,1745203092614712660
7949448,1485,1796,2041,2118,1745203092614712660
7950448,1432,1773,2009,2120,1745203092614712660
7951448,1342,1729,1982,2112,1745203092614712660
7952448,1213,1669,1949,2101,1745203092614712660
7953448,1048,1594,1908,2092,1745203092614712660
7954448,864,1527,1867,2084,1745203092614712660
7955448,694,1463,1839,2078,1745203092614712660
7956448,554,1419,1827,2077,1745203092614712660
7957448,472,1399,1835,2068,1745203092614712660
7958448,433,1421,1852,2074,1745203092614712660
7959448,450,1483,1878,2069,1745203092614712660
7960448,511,1553,1908,2056,1745203092614712660
7961449,618,1640,1938,2042,1745203092614712660
7962449,787,1741,1962,2027,1745203092614712660
7963449,1027,1864,1971,2018,1745203092614712660
7964449,1312,1996,1977,2005,1745203092614712660
7965449,1586,2128,1976,2003,1745203092614712660
7966449,1813,2236,1980,2003,1745203092614712660
7967449,1962,2318,1989,2010,1745203092614712660
7968449,2032,2378,2002,2021,1745203092614712660
7969449,2041,2411,2009,2036,1745203092614712660
7970449,2020,2422,2011,2061,1745203092671012823
7971449,1997,2407,2010,2082,1745203092671012823
7972449,1965,2372,2008,2105,1745203092671012823
7973450,1921,2326,2001,2126,1745203092671012823
7974450,1868,2283,1989,2146,1745203092671012823
7975450,1822,2242,1972,2163,1745203092671012823
7976450,1795,2209,1954,2176,1745203092671012823
7977450,1784,2185,1938,2180,1745203092671012823
7978450,1782,2166,1920,2184,1745203092671012823
7979450,1788,2156,1902,2186,1745203092671012823
7980450,1794,2154,1888,2192,1745203092671012823
7981450,1818,2160,1885,2194,1745203092671012823
7982450,1906,2189,1883,2194,1745203092671012823
7983450,2085,2240,1885,2187,1745203092671012823
7984450,2305,2306,1898,2181,1745203092671012823
7985451,2545,2369,1917,2164,1745203092671012823
7986451,2754,2418,1938,2148,1745203092671012823
7987451,2904,2444,1963,2129,1745203092671012823
7988451,2973,2445,1987,2105,1745203092671012823
7989451,2963,2421,2009,2088,1745203092671012823
7990452,2900,2380,2028,2086,1745203092671012823
7991451,2817,2323,2039,2106,1745203092671012823
7992451,2714,2256,2051,2137,1745203092671012823
7993452,2588,2176,2053,2178,1745203092671012823
7994451,2463,2098,2051,2203,1745203092671012823
7995451,2341,2029,2041,2210,1745203092671012823
7996452,2256,1976,2028,2209,1745203092671012823
7997452,2213,1939,2014,2193,1745203092671012823
7998452,2219,1915,1998,2178,1745203092671012823
7999452,2272,1902,1981,2165,1745203092671012823
8000452,2348,1903,1973,2157,1745203092671012823
8001452,2436,1924,1968,2145,1745203092671012823
8002452,2554,1971,1972,2126,1745203092671012823
8003452,2709,2042,1968,2109,1745203092671012823
8004452,2901,2129,1969,2091,1745203092671012823
8005452,3076,2212,1971,2082,1745203092671012823
8006452,3193,2283,1977,2082,1745203092671012823
8007452,3235,2330,1981,2093,1745203092671012823
8008452,3189,2335,1981,2106,1745203092671012823
8009453,3061,2298,1981,2117,1745203092671012823
8010453,2891,2226,1980,2123,1745203092671012823
8011453,2710,2142,1984,2122,1745203092671012823
8012453,2533,2055,1987,2116,1745203092671012823
8013453,2346,1972,1989,2110,1745203092671012823
8014453,2165,1901,1990,2104,1745203092671012823
8015453,2004,1853,1985,2096,1745203092671012823
8016453,1883,1829,1979,2085,1745203092671012823
8017453,1796,1822,1970,2068,1745203092671012823
8018453,1754,1822,1962,2049,1745203092671012823
8019453,1730,1817,1953,2027,1745203092671012823
8020453,1723,1808,1942,2010,1745203092671012823
8021454,1729,1796,1935,1997,1745203092671012823
8022454,1776,1794,1925,1987,1745203092671012823
8023454,1880,1804,1924,1977,1745203092671012823
8024454,2017,1819,1922,1968,1745203092671012823
8025454,2144,1824,1922,1966,1745203092671012823
8026454,2200,1801,1920,1964,1745203092671012823
8027454,2141,1744,1920,1967,1745203092671012823
8028454,1977,1659,1916,1973,1745203092735951448
8029454,1754,1553,1910,1981,1745203092735951448
8030454,1535,1444,1899,1987,1745203092735951448
8031454,1334,1331,1884,1994,1745203092735951448
8032454,1178,1237,1868,2003,1745203092735951448
8033455,1104,1177,1852,2018,1745203092735951448
8034455,1126,1149,1838,2033,1745203092735951448
8035455,1231,1150,1830,2050,1745203092735951448
8036455,1392,1174,1825,2062,1745203092735951448
8037455,1585,1217,1824,2074,1745203092735951448
8038455,1818,1275,1823,2086,1745203092735951448
8039455,2091,1347,1825,2092,1745203092735951448
8040455,2402,1435,1829,2092,1745203092735951448
8041455,2752,1535,1838,2085,1745203092735951448
8042455,3116,1667,1851,2076,1745203092735951448
8043455,3386,1830,1868,2065,1745203092735951448
8044455,3581,2016,1890,2061,1745203092735951448
8045456,3716,2208,1916,2059,1745203092735951448
8046456,3824,2384,1946,2067,1745203092735951448
8047456,3891,2531,1977,2077,1745203092735951448
8048456,3952,2632,2005,2082,1745203092735951448
8049456,3990,2702,2029,2084,1745203092735951448
8050456,4018,2741,2050,2080,1745203092735951448
8051457,4035,2753,2064,2072,1745203092735951448
8052456,4051,2744,2069,2067,1745203092735951448
8053456,4059,2721,2083,2061,1745203092735951448
8054456,4067,2693,2093,2059,1745203092735951448
8055456,4073,2671,2098,2064,1745203092735951448
8056456,4076,2658,2100,2080,1745203092735951448
8057457,4078,2657,2100,2101,1745203092735951448
8058457,4080,2662,2101,2124,1745203092735951448
8059457,4082,2674,2100,2148,1745203092735951448
8060457,4082,2695,2096,2163,1745203092735951448
8061457,4084,2718,2092,2170,1745203092735951448
8062457,4085,2754,2090,2167,1745203092735951448
8063457,4086,2797,2093,2156,1745203092735951448
8064457,4084,2845,2101,2141,1745203092735951448
8065457,4085,2890,2112,2126,1745203092735951448
8066457,4085,2922,2124,2117,1745203092735951448
8067457,4086,2936,2138,2113,1745203092735951448
8068457,4086,2927,2148,2111,1745203092735951448
8069458,4085,2896,2155,2116,1745203092735951448
8070458,4085,2846,2160,2124,1745203092735951448
8071458,4086,2789,2163,2136,1745203092735951448
8072458,4052,2729,2166,2150,1745203092735951448
8073458,3889,2678,2165,2157,1745203092735951448
8074458,3656,2641,2163,2153,1745203092735951448
8075458,3414,2622,2160,2143,1745203092735951448
8076458,3171,2618,2161,2130,1745203092735951448
8077458,2947,2618,2161,2107,1745203092735951448
8078458,2743,2618,2157,2066,1745203092735951448
8079458,2564,2612,2152,2012,1745203092735951448
8080458,2420,2603,2145,1965,1745203092735951448
8081459,2304,2596,2138,1930,1745203092735951448
8082459,2240,2602,2134,1906,1745203092735951448
8083459,2245,2626,2132,1892,1745203092735951448
8084459,2324,2666,2131,1885,1745203092735951448
8085459,2452,2719,2133,1884,1745203092735951448
8086459,2590,2779,2138,1890,1745203092787362802
8087459,2744,2841,2141,1904,1745203092787362802
8088459,2888,2899,2144,1918,1745203092787362802
8089459,3013,2950,2146,1937,1745203092787362802
8090459,3126,2997,2147,1960,1745203092787362802
8091459,3228,3044,2146,1988,1745203092787362802
8092459,3313,3094,2146,2019,1745203092787362802
8093460,3380,3147,2146,2048,1745203092787362802
8094460,3445,3201,2146,2067,1745203092787362802
8095460,3534,3262,2146,2080,1745203092787362802
8096460,3649,3330,2148,2091,1745203092787362802
8097460,3784,3408,2152,2100,1745203092787362802
8098460,3874,3490,2157,2112,1745203092787362802
8099460,3938,3574,2163,2120,1745203092787362802
8100460,3982,3644,2170,2122,1745203092787362802
8101460,4014,3715,2178,2116,1745203092787362802
8102460,4035,3778,2183,2108,1745203092787362802
8103460,4050,3837,2192,2096,1745203092787362802
8104460,4060,3881,2200,2080,1745203092787362802
8105461,4066,3901,2211,2064,1745203092787362802
8106461,4069,3890,2226,2042,1745203092787362802
8107461,4074,3846,2245,2024,1745203092787362802
8108461,4077,3769,2266,2006,1745203092787362802
8109461,4078,3665,2281,1996,1745203092787362802
8110461,4074,3553,2290,1994,1745203092787362802
8111461,3917,3418,2294,2001,1745203092787362802
8112461,3595,3277,2293,2017,1745203092787362802
8113461,3202,3137,2292,2040,1745203092787362802
8114461,2797,3012,2284,2064,1745203092787362802
8115461,2452,2906,2275,2081,1745203092787362802
8116461,2170,2815,2262,2084,1745203092787362802
8117462,1928,2734,2252,2073,1745203092787362802
8118462,1737,2660,2238,2053,1745203092787362802
8119462,1581,2594,2226,2034,1745203092787362802
8120462,1466,2545,2215,2015,1745203092787362802
8121462,1379,2501,2205,2000,1745203092787362802
8122462,1339,2483,2200,1987,1745203092787362802
8123462,1366,2489,2190,1955,1745203092787362802
8124462,1444,2515,2190,1923,1745203092787362802
8125462,1535,2547,2192,1898,1745203092787362802
8126462,1628,2568,2196,1885,1745203092787362802
8127462,1700,2590,2200,1880,1745203092787362802
8128462,1736,2603,2202,1883,1745203092787362802
8129463,1709,2594,2198,1901,1745203092787362802
8130463,1604,2560,2188,1944,1745203092787362802
8131463,1438,2507,2173,1997,1745203092787362802
8132463,1229,2428,2153,2052,1745203092787362802
8133463,1016,2344,2136,2097,1745203092787362802
8134463,808,2259,2114,2130,1745203092787362802
8135463,643,2170,2090,2149,1745203092787362802
8136463,513,2088,2064,2159,1745203092787362802
8137463,419,2016,2037,2160,1745203092787362802
8138463,337,1968,2017,2151,1745203092787362802
8139463,272,1946,2002,2141,1745203092787362802
8140463,224,1944,1990,2130,1745203092787362802
8141464,219,1957,1987,2116,1745203092787362802
8142464,284,1986,1987,2100,1745203092787362802
8143464,408,2025,1985,2086,1745203092787362802
8144464,532,2060,1974,2068,1745203092849558379
8145464,650,2081,1957,2053,1745203092849558379
8146464,738,2083,1938,2036,1745203092849558379
8147464,794,2074,1918,2024,1745203092849558379
8148464,814,2058,1901,2015,1745203092849558379
8149464,805,2034,1882,2011,1745203092849558379
8150464,769,2006,1865,2006,1745203092849558379
8151464,713,1973,1844,2002,1745203092849558379
8152464,621,1930,1829,1998,1745203092849558379
8153465,509,1881,1825,1986,1745203092849558379
8154465,386,1830,1830,1966,1745203092849558379
8155465,297,1781,1848,1944,1745203092849558379
8156465,232,1738,1873,1923,1745203092849558379
8157465,186,1701,1913,1909,1745203092849558379
8158465,150,1674,1958,1899,1745203092849558379
8159465,123,1654,2012,1891,1745203092849558379
8160465,102,1643,2077,1890,1745203092849558379
8161465,100,1646,2133,1896,1745203092849558379
8162465,181,1677,2165,1908,1745203092849558379
8163465,366,1739,2160,1922,1745203092849558379
8164465,625,1821,2115,1941,1745203092849558379
8165466,929,1907,2059,1961,1745203092849558379
8166466,1215,1984,2008,1980,1745203092849558379
8167466,1445,2040,1972,1994,1745203092849558379
8168466,1597,2082,1953,2005,1745203092849558379
8169466,1690,2098,1968,2011,1745203092849558379
8170466,1733,2110,2004,2006,1745203092849558379
8171466,1746,2122,2058,2008,1745203092849558379
8172466,1732,2128,2098,2013,1745203092849558379
8173466,1694,2130,2107,2018,1745203092849558379
8174466,1636,2132,2077,2018,1745203092849558379
8175466,1588,2138,2017,2018,1745203092849558379
8176466,1565,2148,1948,2021,1745203092849558379
8177467,1579,2164,1891,2028,1745203092849558379
8178467,1634,2187,1848,2034,1745203092849558379
8179467,1732,2218,1788,2045,1745203092849558379
8180467,1849,2257,1702,2061,1745203092849558379
8181467,1987,2312,1604,2075,1745203092849558379
8182467,2172,2391,1524,2089,1745203092849558379
8183467,2413,2492,1477,2101,1745203092849558379
8184467,2688,2590,1491,2114,1745203092849558379
8185467,2966,2684,1549,2123,1745203092849558379
8186467,3192,2749,1641,2130,1745203092849558379
8187467,3320,2782,1734,2131,1745203092849558379
8188467,3331,2780,1829,2130,1745203092849558379
8189468,3212,2737,1942,2126,1745203092849558379
8190468,2994,2664,2059,2113,1745203092849558379
8191468,2715,2569,2160,2094,1745203092849558379
8192468,2391,2456,2216,2064,1745203092849558379
8193468,2020,2312,2228,2032,1745203092849558379
8194468,1643,2157,2221,2008,1745203092849558379
8195468,1299,2004,2215,1994,1745203092849558379
8196468,1011,1869,2201,1987,1745203092849558379
8197468,797,1758,2153,1986,1745203092849558379
8198468,632,1673,2100,1985,1745203092849558379
8199468,511,1609,2055,1985,1745203092849558379
8200468,409,1561,2035,1984,1745203092849558379
8201469,327,1532,2038,1982,1745203092849558379
8202469,269,1514,2062,1988,1745203092904461888
8203469,286,1518,2105,1988,1745203092904461888
8204469,387,1535,2164,1992,1745203092904461888
8205469,513,1561,2249,1995,1745203092904461888
8206469,632,1577,2344,2001,1745203092904461888
8207469,701,1579,2436,2008,1745203092904461888
8208469,700,1559,2499,2010,1745203092904461888
8209469,620,1521,2525,2014,1745203092904461888
8210469,491,1457,2517,2034,1745203092904461888
8211469,369,1382,2489,2065,1745203092904461888
8212469,282,1294,2446,2104,1745203092904461888
8213470,222,1196,2395,2142,1745203092904461888
8214470,179,1094,2340,2170,1745203092904461888
8215470,146,1002,2289,2197,1745203092904461888
8216470,120,920,2248,2212,1745203092904461888
8217470,99,856,2215,2222,1745203092904461888
8218470,84,808,2184,2228,1745203092904461888
8219470,71,774,2149,2230,1745203092904461888
8220470,61,754,2112,2230,1745203092904461888
8221470,54,743,2070,2227,1745203092904461888
8222470,48,754,2022,2220,1745203092904461888
8223470,44,786,1968,2209,1745203092904461888
8224471,76,845,1926,2201,1745203092904461888
8225471,206,907,1863,2200,1745203092904461888
8226471,376,961,1795,2201,1745203092904461888
8227471,524,996,1736,2207,1745203092904461888
8228471,629,1006,1696,2216,1745203092904461888
8229471,661,989,1684,2223,1745203092904461888
8230471,617,948,1692,2230,1745203092904461888
8231471,513,892,1721,2240,1745203092904461888
8232471,394,824,1750,2245,1745203092904461888
8233471,299,741,1779,2249,1745203092904461888
8234471,230,662,1801,2249,1745203092904461888
8235471,179,593,1819,2247,1745203092904461888
8236471,140,536,1830,2242,1745203092904461888
8237472,112,509,1825,2234,1745203092904461888
8238472,91,486,1800,2224,1745203092904461888
8239472,74,480,1753,2213,1745203092904461888
8240472,62,488,1689,2198,1745203092904461888
8241472,54,511,1609,2184,1745203092904461888
8242472,97,556,1535,2166,1745203092904461888
8243472,273,637,1489,2148,1745203092904461888
8244472,540,738,1478,2132,1745203092904461888
8245472,848,843,1506,2115,1745203092904461888
8246472,1132,934,1549,2092,1745203092904461888
8247472,1352,1005,1618,2064,1745203092904461888
8248472,1483,1050,1697,2035,1745203092904461888
8249473,1513,1065,1777,2009,1745203092904461888
8250473,1449,1058,1842,1984,1745203092904461888
8251473,1315,1031,1898,1962,1745203092904461888
8252473,1128,985,1930,1935,1745203092904461888
8253473,898,925,1925,1910,1745203092904461888
8254473,685,865,1889,1889,1745203092904461888
8255473,528,812,1842,1877,1745203092904461888
8256473,418,771,1792,1865,1745203092904461888
8257473,326,749,1741,1857,1745203092904461888
8258473,258,741,1702,1852,1745203092904461888
8259473,210,750,1678,1856,1745203092904461888
8260473,208,770,1676,1860,1745203092962868542
8261474,264,803,1717,1867,1745203092962868542
8262474,396,859,1799,1870,1745203092962868542
8263474,598,940,1902,1878,1745203092962868542
8264474,861,1043,2005,1884,1745203092962868542
8265474,1134,1149,2101,1890,1745203092962868542
8266474,1369,1243,2189,1900,1745203092962868542
8267474,1534,1318,2280,1911,1745203092962868542
8268474,1601,1369,2377,1928,1745203092962868542
8269474,1574,1390,2466,1942,1745203092962868542
8270474,1466,1387,2540,1963,1745203092962868542
8271474,1291,1366,2588,1982,1745203092962868542
8272474,1066,1326,2616,1995,1745203092962868542
8273475,824,1276,2610,1994,1745203092962868542
8274475,633,1224,2559,1965,1745203092962868542
8275475,500,1181,2464,1920,1745203092962868542
8276475,390,1154,2334,1881,1745203092962868542
8277475,306,1145,2214,1854,1745203092962868542
8278475,242,1150,2131,1841,1745203092962868542
8279475,193,1170,2074,1837,1745203092962868542
8280475,154,1200,2040,1845,1745203092962868542
8281475,125,1244,2022,1864,1745203092962868542
8282475,118,1313,2007,1882,1745203092962868542
8283475,222,1410,2003,1899,1745203092962868542
8284475,429,1520,2013,1915,1745203092962868542
8285476,676,1619,2029,1932,1745203092962868542
8286476,934,1721,2057,1949,1745203092962868542
8287476,1164,1799,2083,1969,1745203092962868542
8288476,1345,1851,2105,1990,1745203092962868542
8289476,1469,1876,2122,2006,1745203092962868542
8290476,1536,1872,2116,2019,1745203092962868542
8291476,1579,1849,2097,2030,1745203092962868542
8292476,1585,1803,2054,2040,1745203092962868542
8293476,1553,1739,1982,2045,1745203092962868542
8294476,1513,1667,1901,2056,1745203092962868542
8295476,1484,1601,1821,2061,1745203092962868542
8296476,1501,1555,1766,2068,1745203092962868542
8297477,1567,1535,1748,2074,1745203092962868542
8298477,1685,1536,1792,2075,1745203092962868542
8299477,1824,1563,1898,2076,1745203092962868542
8300477,1970,1605,2038,2067,1745203092962868542
8301477,2134,1656,2189,2062,1745203092962868542
8302477,2361,1721,2312,2053,1745203092962868542
8303477,2661,1804,2400,2052,1745203092962868542
8304477,3012,1905,2446,2050,1745203092962868542
8305477,3299,2002,2458,2043,1745203092962868542
8306477,3516,2088,2446,2040,1745203092962868542
8307477,3662,2152,2433,2029,1745203092962868542
8308477,3718,2191,2426,2028,1745203092962868542
8309478,3650,2201,2416,2022,1745203092962868542
8310478,3496,2189,2402,2036,1745203092962868542
8311478,3285,2158,2387,2041,1745203092962868542
8312478,3034,2110,2366,2051,1745203092962868542
8313478,2753,2052,2338,2060,1745203092962868542
8314478,2477,1992,2290,2078,1745203092962868542
8315478,2233,1947,2225,2095,1745203092962868542
8316478,2056,1921,2138,2107,1745203092962868542
8317478,1946,1911,2033,2119,1745203092962868542
8318478,1888,1918,1928,2123,1745203093022627319
8319478,1862,1941,1820,2128,1745203093022627319
8320478,1870,1974,1717,2130,1745203093022627319
8321479,1928,2018,1628,2127,1745203093022627319
8322479,2075,2088,1570,2124,1745203093022627319
8323479,2312,2179,1547,2120,1745203093022627319
8324479,2602,2278,1578,2115,1745203093022627319
8325479,2907,2371,1666,2112,1745203093022627319
8326479,3168,2449,1806,2108,1745203093022627319
8327479,3348,2499,1980,2107,1745203093022627319
8328479,3438,2515,2153,2106,1745203093022627319
8329479,3434,2497,2310,2107,1745203093022627319
8330479,3342,2451,2434,2108,1745203093022627319
8331479,3192,2395,2526,2105,1745203093022627319
8332479,2997,2334,2576,2104,1745203093022627319
8333480,2777,2270,2594,2100,1745203093022627319
8334480,2559,2213,2582,2096,1745203093022627319
8335480,2374,2168,2553,2093,1745203093022627319
8336480,2221,2141,2499,2090,1745203093022627319
8337480,2098,2138,2437,2090,1745203093022627319
8338480,2004,2153,2369,2089,1745203093022627319
8339480,1950,2174,2292,2100,1745203093022627319
8340480,1950,2197,2220,2109,1745203093022627319
8341481,2021,2226,2158,2125,1745203093022627319
8342480,2188,2273,2105,2142,1745203093022627319
8343480,2453,2341,2056,2163,1745203093022627319
8344480,2773,2426,2016,2180,1745203093022627319
8345481,3113,2513,2003,2200,1745203093022627319
8346481,3396,2573,2030,2221,1745203093022627319
8347481,3590,2620,2090,2238,1745203093022627319
8348481,3697,2651,2162,2250,1745203093022627319
8349481,3685,2667,2242,2254,1745203093022627319
8350481,3583,2670,2294,2250,1745203093022627319
8351481,3412,2650,2333,2243,1745203093022627319
8352481,3200,2610,2358,2235,1745203093022627319
8353481,2958,2554,2363,2228,1745203093022627319
8354481,2716,2480,2346,2218,1745203093022627319
8355481,2513,2416,2318,2208,1745203093022627319
8356481,2355,2361,2284,2195,1745203093022627319
8357482,2257,2320,2244,2174,1745203093022627319
8358482,2211,2292,2202,2162,1745203093022627319
8359482,2213,2277,2154,2142,1745203093022627319
8360482,2256,2274,2099,2128,1745203093022627319
8361482,2328,2282,2037,2116,1745203093022627319
8362482,2454,2310,1980,2111,1745203093022627319
8363482,2642,2358,1934,2102,1745203093022627319
8364482,2890,2416,1904,2104,1745203093022627319
8365482,3142,2475,1894,2110,1745203093022627319
8366482,3350,2519,1900,2123,1745203093022627319
8367482,3489,2545,1920,2133,1745203093022627319
8368482,3532,2549,1948,2139,1745203093022627319
8369483,3475,2525,1977,2139,1745203093022627319
8370483,3337,2482,1992,2138,1745203093022627319
8371483,3152,2425,1998,2138,1745203093022627319
8372483,2932,2355,1992,2136,1745203093022627319
8373483,2690,2275,1988,2128,1745203093022627319
8374483,2450,2190,1992,2121,1745203093022627319
8375483,2221,2110,2002,2114,1745203093022627319
8376483,2031,2042,2018,2109,1745203093079443936
8377483,1890,1989,2030,2105,1745203093079443936
8378483,1794,1952,2037,2101,1745203093079443936
8379483,1739,1924,2043,2101,1745203093079443936
8380483,1715,1899,2050,2101,1745203093079443936
8381484,1718,1883,2055,2098,1745203093079443936
8382484,1773,1877,2056,2094,1745203093079443936
8383484,1889,1889,2056,2090,1745203093079443936
8384484,2037,1909,2058,2088,1745203093079443936
8385484,2173,1920,2064,2088,1745203093079443936
8386484,2254,1904,2067,2094,1745203093079443936
8387484,2244,1856,2067,2100,1745203093079443936
8388484,2119,1778,2063,2104,1745203093079443936
8389484,1883,1660,2048,2101,1745203093079443936
8390484,1571,1516,2027,2100,1745203093079443936
8391484,1242,1334,1999,2098,1745203093079443936
8392484,969,1128,1963,2099,1745203093079443936
8393485,769,904,1924,2096,1745203093079443936
8394486,612,706,1880,2091,1745203093079443936
8395485,497,554,1836,2086,1745203093079443936
8396485,400,446,1792,2080,1745203093079443936
8397486,321,354,1750,2083,1745203093079443936
8398485,258,284,1709,2094,1745203093079443936
8399486,209,228,1676,2107,1745203093079443936
8400485,171,215,1648,2125,1745203093079443936
8401485,182,290,1629,2143,1745203093079443936
8402485,478,449,1614,2159,1745203093079443936
8403485,1024,654,1616,2161,1745203093079443936
8404485,1698,899,1629,2156,1745203093079443936
8405486,2282,1156,1651,2132,1745203093079443936
8406486,2731,1405,1681,2102,1745203093079443936
8407486,3085,1624,1712,2075,1745203093079443936
8408486,3357,1820,1745,2051,1745203093079443936
8409486,3562,1986,1779,2031,1745203093079443936
8410486,3704,2108,1806,2017,1745203093079443936
8411486,3813,2197,1834,2006,1745203093079443936
8412486,3889,2250,1861,2004,1745203093079443936
8413486,3946,2278,1884,2001,1745203093079443936
8414486,3987,2300,1904,2002,1745203093079443936
8415486,4013,2321,1921,2001,1745203093079443936
8416486,4035,2349,1930,2002,1745203093079443936
8417487,4049,2389,1941,2010,1745203093079443936
8418487,4059,2441,1949,2018,1745203093079443936
8419487,4066,2501,1961,2027,1745203093079443936
8420487,4072,2559,1971,2026,1745203093079443936
8421487,4075,2618,1984,2010,1745203093079443936
8422487,4078,2691,1996,1978,1745203093079443936
8423487,4080,2772,2006,1945,1745203093079443936
8424487,4081,2859,2018,1920,1745203093079443936
8425487,4082,2942,2033,1902,1745203093079443936
8426487,4083,3017,2053,1894,1745203093079443936
8427488,4084,3074,2074,1893,1745203093079443936
8428487,4084,3113,2090,1899,1745203093079443936
8429488,4084,3129,2102,1906,1745203093079443936
8430488,4085,3126,2116,1918,1745203093079443936
8431488,4086,3112,2124,1933,1745203093079443936
8432488,4085,3087,2126,1949,1745203093079443936
8433488,4085,3058,2125,1965,1745203093079443936
8434488,4084,3040,2118,1980,1745203093138194545
8435488,4057,3031,2112,1993,1745203093138194545
8436488,4008,3040,2107,2014,1745203093138194545
8437488,3969,3061,2102,2033,1745203093138194545
8438488,3942,3088,2100,2057,1745203093138194545
8439488,3918,3114,2098,2076,1745203093138194545
8440488,3898,3138,2100,2090,1745203093138194545
8441489,3885,3162,2098,2096,1745203093138194545
8442489,3899,3193,2098,2096,1745203093138194545
8443489,3950,3238,2097,2088,1745203093138194545
8444489,4001,3285,2097,2070,1745203093138194545
8445489,4030,3324,2098,2056,1745203093138194545
8446489,4034,3347,2097,2029,1745203093138194545
8447489,3969,3345,2097,2003,1745203093138194545
8448489,3851,3342,2096,1977,1745203093138194545
8449489,3706,3320,2093,1956,1745203093138194545
8450489,3577,3290,2089,1940,1745203093138194545
8451489,3457,3258,2086,1932,1745203093138194545
8452489,3353,3227,2083,1930,1745203093138194545
8453490,3269,3200,2078,1933,1745203093138194545
8454490,3213,3184,2072,1942,1745203093138194545
8455490,3210,3186,2069,1955,1745203093138194545
8456490,3275,3204,2070,1968,1745203093138194545
8457490,3401,3242,2074,1979,1745203093138194545
8458490,3571,3292,2082,1990,1745203093138194545
8459490,3734,3348,2089,2004,1745203093138194545
8460490,3851,3404,2097,2009,1745203093138194545
8461490,3928,3466,2107,2022,1745203093138194545
8462490,3980,3544,2118,2022,1745203093138194545
8463490,4014,3632,2134,2020,1745203093138194545
8464490,4037,3745,2153,2016,1745203093138194545
8465491,4051,3840,2173,2014,1745203093138194545
8466491,4052,3908,2194,2015,1745203093138194545
8467491,4068,3957,2218,2016,1745203093138194545
8468491,4073,3993,2241,2020,1745203093138194545
8469491,4077,4019,2264,2025,1745203093138194545
8470491,4079,4037,2287,2028,1745203093138194545
8471491,4081,4049,2309,2030,1745203093138194545
8472491,4081,4059,2333,2033,1745203093138194545
8473491,4082,4067,2352,2040,1745203093138194545
8474491,4083,4065,2368,2056,1745203093138194545
8475491,4083,4044,2380,2075,1745203093138194545
8476491,4084,4008,2391,2093,1745203093138194545
8477492,4084,3969,2404,2112,1745203093138194545
8478492,4084,3929,2410,2125,1745203093138194545
8479492,4085,3888,2418,2134,1745203093138194545
8480492,4086,3844,2422,2133,1745203093138194545
8481492,4087,3811,2425,2116,1745203093138194545
8482492,4085,3797,2422,2078,1745203093138194545
8483492,4085,3802,2418,2034,1745203093138194545
8484492,4086,3810,2412,1994,1745203093138194545
8485492,4084,3813,2408,1958,1745203093138194545
8486492,4086,3800,2403,1933,1745203093138194545
8487492,4061,3742,2397,1917,1745203093138194545
8488492,3924,3665,2392,1905,1745203093138194545
8489493,3680,3571,2382,1893,1745203093138194545
8490493,3366,3450,2371,1887,1745203093138194545
8491493,3002,3317,2354,1884,1745203093138194545
8492493,2611,3169,2334,1882,1745203093198267746
8493493,2209,3010,2313,1883,1745203093198267746
8494493,1811,2852,2292,1886,1745203093198267746
8495493,1461,2712,2272,1889,1745203093198267746
8496493,1159,2591,2251,1886,1745203093198267746
8497493,915,2496,2229,1881,1745203093198267746
8498493,728,2399,2205,1880,1745203093198267746
8499493,581,2312,2179,1898,1745203093198267746
8500493,475,2232,2153,1950,1745203093198267746
8501494,381,2161,2130,2025,1745203093198267746
8502494,307,2108,2112,2096,1745203093198267746
8503494,253,2073,2099,2148,1745203093198267746
8504494,237,2051,2098,2181,1745203093198267746
8505494,250,2028,2104,2193,1745203093198267746
8506494,254,2001,2116,2202,1745203093198267746
8507494,226,1961,2124,2196,1745203093198267746
8508494,180,1907,2124,2185,1745203093198267746
8509494,147,1841,2117,2173,1745203093198267746
8510494,121,1763,2100,2162,1745203093198267746
8511494,101,1668,2080,2146,1745203093198267746
8512494,85,1558,2058,2121,1745203093198267746
8513495,73,1449,2033,2077,1745203093198267746
8514495,64,1332,2013,2020,1745203093198267746
8515495,56,1233,1996,1960,1745203093198267746
8516495,50,1158,1983,1908,1745203093198267746
8517495,45,1113,1971,1878,1745203093198267746
8518495,41,1097,1963,1856,1745203093198267746
8519495,37,1107,1952,1844,1745203093198267746
8520495,35,1144,1952,1852,1745203093198267746
8521495,34,1200,1959,1861,1745203093198267746
8522495,32,1279,1973,1878,1745203093198267746
8523495,36,1387,1988,1899,1745203093198267746
8524495,165,1523,2005,1920,1745203093198267746
8525496,450,1673,2026,1931,1745203093198267746
8526496,827,1844,2049,1950,1745203093198267746
8527496,1270,2021,2072,1970,1745203093198267746
8528496,1717,2196,2091,1986,1745203093198267746
8529496,2152,2353,2107,2007,1745203093198267746
8530496,2537,2488,2117,2027,1745203093198267746
8531496,2854,2594,2126,2049,1745203093198267746
8532496,3104,2683,2132,2064,1745203093198267746
8533496,3272,2748,2136,2073,1745203093198267746
8534496,3376,2800,2139,2081,1745203093198267746
8535496,3453,2848,2138,2082,1745203093198267746
8536496,3534,2903,2133,2082,1745203093198267746
8537497,3626,2964,2118,2082,1745203093198267746
8538497,3738,3029,2088,2073,1745203093198267746
8539497,3836,3096,2049,2065,1745203093198267746
8540497,3906,3160,2014,2054,1745203093198267746
8541497,3956,3222,1989,2044,1745203093198267746
8542497,3994,3292,1973,2041,1745203093198267746
8543497,4019,3366,1970,2038,1745203093198267746
8544497,4036,3438,1979,2041,1745203093198267746
8545497,4049,3494,1999,2050,1745203093198267746
8546497,4059,3515,2027,2057,1745203093198267746
8547497,4065,3498,2059,2068,1745203093198267746
8548497,4053,3437,2086,2076,1745203093198267746
8549498,3884,3339,2083,2082,1745203093198267746
8550498,3572,3214,2077,2088,1745203093254647179
8551498,3165,3074,2067,2090,1745203093254647179
8552498,2716,2921,2070,2091,1745203093254647179
8553498,2259,2757,2096,2091,1745203093254647179
8554498,1805,2594,2124,2093,1745203093254647179
8555498,1409,2443,2156,2092,1745203093254647179
8556498,1101,2298,2192,2092,1745203093254647179
8557498,869,2169,2227,2092,1745203093254647179
8558498,692,2059,2255,2090,1745203093254647179
8559499,552,1963,2269,2092,1745203093254647179
8560498,450,1879,2268,2091,1745203093254647179
8561499,362,1809,2250,2093,1745203093254647179
8562499,291,1763,2221,2100,1745203093254647179
8563499,244,1733,2182,2118,1745203093254647179
8564499,267,1726,2138,2141,1745203093254647179
8565499,348,1719,2089,2169,1745203093254647179
8566499,430,1705,2034,2195,1745203093254647179
8567499,471,1678,1988,2224,1745203093254647179
8568499,443,1628,1937,2248,1745203093254647179
8569499,342,1561,1866,2258,1745203093254647179
8570499,258,1482,1759,2254,1745203093254647179
8571499,203,1387,1620,2245,1745203093254647179
8572499,164,1282,1480,2243,1745203093254647179
8573500,134,1166,1345,2250,1745203093254647179
8574500,110,1052,1240,2259,1745203093254647179
8575500,92,945,1185,2267,1745203093254647179
8576500,78,850,1188,2263,1745203093254647179
8577501,67,770,1265,2254,1745203093254647179
8578500,59,709,1411,2232,1745203093254647179
8579500,51,661,1594,2214,1745203093254647179
8580500,45,628,1790,2193,1745203093254647179
8581500,42,608,1954,2172,1745203093254647179
8582500,38,609,2074,2154,1745203093254647179
8583500,36,636,2148,2140,1745203093254647179
8584500,33,680,2189,2129,1745203093254647179
8585501,30,728,2212,2124,1745203093254647179
8586501,30,768,2221,2114,1745203093254647179
8587501,30,793,2222,2106,1745203093254647179
8588501,28,799,2219,2102,1745203093254647179
8589501,28,779,2201,2099,1745203093254647179
8590501,27,731,2170,2099,1745203093254647179
8591501,26,664,2124,2097,1745203093254647179
8592501,26,581,2068,2098,1745203093254647179
8593501,26,505,1998,2100,1745203093254647179
8594501,25,416,1938,2100,1745203093254647179
8595501,25,332,1866,2096,1745203093254647179
8596501,26,266,1800,2086,1745203093254647179
8597502,24,216,1737,2078,1745203093254647179
8598502,25,184,1689,2072,1745203093254647179
8599502,25,171,1659,2068,1745203093254647179
8600502,24,173,1643,2064,1745203093254647179
8601502,25,194,1636,2060,1745203093254647179
8602502,25,243,1622,2048,1745203093254647179
8603502,24,324,1597,2026,1745203093254647179
8604502,26,432,1554,2003,1745203093254647179
8605502,108,540,1515,1976,1745203093254647179
8606502,268,653,1480,1958,1745203093254647179
8607502,442,746,1457,1948,1745203093254647179
8608502,565,812,1462,1957,1745203093314755223
8609503,625,849,1480,1972,1745203093314755223
8610503,606,852,1508,1972,1745203093314755223
8611503,516,834,1536,1955,1745203093314755223
8612503,397,780,1565,1926,1745203093314755223
8613503,300,718,1570,1893,1745203093314755223
8614503,229,648,1558,1873,1745203093314755223
8615503,178,582,1547,1859,1745203093314755223
8616503,140,533,1549,1851,1745203093314755223
8617503,110,511,1569,1854,1745203093314755223
8618503,90,500,1601,1869,1745203093314755223
8619503,75,501,1644,1894,1745203093314755223
8620503,61,511,1714,1923,1745203093314755223
8621504,52,542,1809,1947,1745203093314755223
8622504,52,599,1914,1963,1745203093314755223
8623504,149,683,2022,1971,1745203093314755223
8624504,353,785,2116,1978,1745203093314755223
8625504,589,889,2194,1986,1745203093314755223
8626504,813,982,2259,2002,1745203093314755223
8627504,976,1058,2305,2021,1745203093314755223
8628504,1051,1107,2334,2041,1745203093314755223
8629504,1018,1130,2354,2062,1745203093314755223
8630504,883,1123,2349,2078,1745203093314755223
8631504,684,1092,2326,2091,1745203093314755223
8632504,516,1037,2283,2092,1745203093314755223
8633505,403,964,2229,2084,1745203093314755223
8634505,310,884,2176,2068,1745203093314755223
8635506,242,810,2100,2050,1745203093314755223
8636505,189,748,1994,2022,1745203093314755223
8637505,153,710,1882,2008,1745203093314755223
8638505,122,696,1773,1997,1745203093314755223
8639505,98,700,1677,1991,1745203093314755223
8640505,82,723,1601,1987,1745203093314755223
8641505,68,763,1545,1981,1745203093314755223
8642505,59,831,1525,1949,1745203093314755223
8643505,51,929,1513,1909,1745203093314755223
8644505,44,1048,1514,1868,1745203093314755223
8645506,82,1172,1535,1839,1745203093314755223
8646506,266,1285,1574,1829,1745203093314755223
8647506,525,1378,1640,1833,1745203093314755223
8648506,808,1446,1715,1845,1745203093314755223
8649506,1069,1485,1804,1868,1745203093314755223
8650506,1295,1498,1903,1878,1745203093314755223
8651506,1495,1488,2015,1889,1745203093314755223
8652506,1644,1458,2141,1891,1745203093314755223
8653506,1757,1411,2260,1890,1745203093314755223
8654506,1841,1356,2352,1891,1745203093314755223
8655506,1923,1308,2404,1892,1745203093314755223
8656506,2030,1276,2421,1892,1745203093314755223
8657507,2194,1265,2409,1899,1745203093314755223
8658507,2387,1276,2376,1906,1745203093314755223
8659507,2578,1308,2326,1913,1745203093314755223
8660507,2809,1348,2268,1924,1745203093314755223
8661507,3031,1401,2214,1946,1745203093314755223
8662507,3154,1477,2163,1977,1745203093314755223
8663507,3128,1570,2109,2012,1745203093314755223
8664507,2981,1688,2065,2042,1745203093314755223
8665507,2809,1807,2016,2072,1745203093314755223
8666507,2665,1915,1980,2094,1745203093390572395
8667507,2573,1998,1958,2110,1745203093390572395
8668507,2515,2058,1941,2114,1745203093390572395
8669508,2412,2086,1926,2120,1745203093390572395
8670508,2240,2091,1906,2131,1745203093390572395
8671508,2000,2077,1876,2148,1745203093390572395
8672508,1705,2044,1852,2177,1745203093390572395
8673508,1365,2000,1822,2204,1745203093390572395
8674508,1060,1955,1768,2236,1745203093390572395
8675508,831,1921,1682,2257,1745203093390572395
8676508,658,1897,1585,2273,1745203093390572395
8677508,523,1892,1518,2277,1745203093390572395
8678508,470,1900,1494,2277,1745203093390572395
8679508,512,1916,1533,2275,1745203093390572395
8680508,674,1934,1628,2274,1745203093390572395
8681509,923,1961,1786,2268,1745203093390572395
8682509,1258,2009,1978,2257,1745203093390572395
8683509,1673,2089,2182,2240,1745203093390572395
8684509,2170,2181,2382,2227,1745203093390572395
8685509,2645,2274,2553,2214,1745203093390572395
8686509,3021,2360,2666,2209,1745203093390572395
8687509,3309,2422,2732,2208,1745203093390572395
8688509,3523,2454,2742,2211,1745203093390572395
8689509,3672,2452,2716,2212,1745203093390572395
8690509,3789,2422,2667,2212,1745203093390572395
8691511,3874,2376,2614,2205,1745203093390572395
8692509,3932,2317,2574,2198,1745203093390572395
8693510,3969,2248,2524,2196,1745203093390572395
8694510,3954,2185,2483,2206,1745203093390572395
8695510,3850,2132,2440,2216,1745203093390572395
8696510,3723,2098,2401,2233,1745203093390572395
8697510,3614,2092,2376,2254,1745203093390572395
8698510,3565,2109,2344,2274,1745203093390572395
8699510,3565,2136,2292,2286,1745203093390572395
8700510,3617,2168,2226,2288,1745203093390572395
8701510,3736,2209,2171,2278,1745203093390572395
8702510,3857,2267,2138,2253,1745203093390572395
8703510,3936,2346,2134,2218,1745203093390572395
8704510,3985,2434,2149,2173,1745203093390572395
8705511,4015,2514,2176,2130,1745203093390572395
8706511,4035,2570,2202,2093,1745203093390572395
8707511,4048,2610,2230,2067,1745203093390572395
8708511,4060,2620,2254,2042,1745203093390572395
8709511,4065,2593,2264,2026,1745203093390572395
8710511,4070,2547,2256,2004,1745203093390572395
8711511,4074,2477,2235,1961,1745203093390572395
8712511,4076,2398,2221,1909,1745203093390572395
8713511,4078,2317,2220,1864,1745203093390572395
8714511,4052,2240,2227,1829,1745203093390572395
8715511,3932,2176,2242,1812,1745203093390572395
8716511,3790,2130,2254,1806,1745203093390572395
8717512,3677,2105,2254,1801,1745203093390572395
8718512,3617,2098,2247,1797,1745203093390572395
8719512,3609,2109,2240,1800,1745203093390572395
8720512,3650,2132,2238,1809,1745203093390572395
8721512,3738,2165,2233,1824,1745203093390572395
8722512,3857,2222,2213,1843,1745203093390572395
8723512,3938,2303,2180,1860,1745203093390572395
8724512,3988,2400,2153,1873,1745203093430329168
8725512,4023,2491,2148,1888,1745203093430329168
8726512,4045,2560,2178,1906,1745203093430329168
8727512,4058,2609,2221,1923,1745203093430329168
8728512,4067,2630,2262,1941,1745203093430329168
8729513,4073,2623,2298,1958,1745203093430329168
8730513,4076,2592,2317,1976,1745203093430329168
8731513,4080,2548,2314,1993,1745203093430329168
8732513,4075,2480,2284,2005,1745203093430329168
8733513,3951,2406,2242,2021,1745203093430329168
8734513,3710,2326,2193,2028,1745203093430329168
8735513,3443,2256,2151,2034,1745203093430329168
8736513,3192,2200,2128,2034,1745203093430329168
8737513,2984,2161,2132,2037,1745203093430329168
8738513,2824,2129,2158,2036,1745203093430329168
8739513,2710,2115,2191,2038,1745203093430329168
8740513,2631,2110,2216,2041,1745203093430329168
8741514,2587,2121,2236,2044,1745203093430329168
8742514,2607,2148,2248,2050,1745203093430329168
8743514,2721,2204,2254,2051,1745203093430329168
8744514,2905,2276,2248,2051,1745203093430329168
8745514,3112,2346,2240,2052,1745203093430329168
8746514,3293,2402,2225,2054,1745203093430329168
8747514,3411,2438,2209,2053,1745203093430329168
8748514,3434,2448,2193,2051,1745203093430329168
8749514,3345,2432,2179,2048,1745203093430329168
8750514,3181,2388,2158,2040,1745203093430329168
8751514,2953,2329,2130,2043,1745203093430329168
8752514,2698,2258,2086,2051,1745203093430329168
8753515,2428,2179,2033,2059,1745203093430329168
8754515,2162,2105,1957,2070,1745203093430329168
8755515,1923,2043,1864,2083,1745203093430329168
8756515,1737,1993,1774,2098,1745203093430329168
8757515,1606,1959,1701,2112,1745203093430329168
8758515,1535,1934,1664,2123,1745203093430329168
8759515,1501,1917,1656,2130,1745203093430329168
8760515,1493,1902,1687,2132,1745203093430329168
8761515,1503,1889,1756,2124,1745203093430329168
8762515,1536,1888,1844,2113,1745203093430329168
8763515,1624,1903,1921,2099,1745203093430329168
8764515,1733,1914,1978,2085,1745203093430329168
8765516,1822,1926,2016,2074,1745203093430329168
8766516,1856,1916,2040,2062,1745203093430329168
8767516,1796,1874,2060,2053,1745203093430329168
8768516,1627,1804,2067,2048,1745203093430329168
8769516,1372,1700,2075,2039,1745203093430329168
8770516,1082,1561,2088,2035,1745203093430329168
8771516,852,1401,2108,2029,1745203093430329168
8772516,677,1204,2107,2029,1745203093430329168
8773516,541,992,2097,2030,1745203093430329168
8774516,442,779,2069,2027,1745203093430329168
8775516,355,611,2027,2024,1745203093430329168
8776516,286,491,1984,2020,1745203093430329168
8777517,232,389,1940,2018,1745203093430329168
8778517,187,309,1899,2016,1745203093430329168
8779517,155,246,1864,2016,1745203093430329168
8780517,128,198,1829,2020,1745203093430329168
8781517,106,209,1795,2027,1745203093430329168
8782517,90,309,1771,2036,1745203093489917842
8783517,75,486,1753,2048,1745203093489917842
8784517,156,700,1746,2057,1745203093489917842
8785517,480,934,1756,2067,1745203093489917842
8786518,938,1169,1781,2078,1745203093489917842
8787517,1460,1384,1816,2091,1745203093489917842
8788517,1954,1571,1852,2107,1745203093489917842
8789518,2403,1738,1889,2120,1745203093489917842
8790518,2758,1876,1922,2128,1745203093489917842
8791518,3021,1992,1950,2129,1745203093489917842
8792518,3187,2086,1973,2130,1745203093489917842
8793518,3261,2161,1992,2130,1745203093489917842
8794518,3280,2226,2006,2129,1745203093489917842
8795518,3296,2290,2018,2131,1745203093489917842
8796518,3349,2363,2020,2131,1745203093489917842
8797518,3454,2442,2013,2129,1745203093489917842
8798518,3596,2528,1997,2124,1745203093489917842
8799518,3736,2611,1973,2121,1745203093489917842
8800518,3836,2706,1945,2115,1745203093489917842
8801519,3907,2802,1926,2105,1745203093489917842
8802519,3957,2904,1921,2098,1745203093489917842
8803519,3996,3016,1932,2094,1745203093489917842
8804519,4021,3114,1962,2095,1745203093489917842
8805519,4040,3204,1998,2096,1745203093489917842
8806519,4052,3270,2028,2096,1745203093489917842
8807519,4061,3309,2051,2098,1745203093489917842
8808520,4069,3316,2069,2106,1745203093489917842
8809519,4072,3291,2085,2117,1745203093489917842
8810519,4076,3238,2101,2130,1745203093489917842
8811519,4078,3162,2125,2142,1745203093489917842
8812520,4072,3075,2143,2160,1745203093489917842
8813520,3940,2984,2161,2178,1745203093489917842
8814520,3697,2892,2171,2197,1745203093489917842
8815520,3416,2804,2177,2216,1745203093489917842
8816520,3145,2729,2173,2228,1745203093489917842
8817520,2949,2680,2162,2234,1745203093489917842
8818520,2834,2635,2148,2236,1745203093489917842
8819520,2804,2618,2131,2235,1745203093489917842
8820520,2852,2618,2116,2233,1745203093489917842
8821520,2975,2639,2103,2235,1745203093489917842
8822520,3168,2685,2093,2241,1745203093489917842
8823520,3418,2752,2088,2244,1745203093489917842
8824520,3625,2833,2088,2244,1745203093489917842
8825521,3772,2918,2091,2242,1745203093489917842
8826521,3869,2998,2096,2241,1745203093489917842
8827521,3937,3066,2100,2244,1745203093489917842
8828521,3984,3122,2108,2251,1745203093489917842
8829521,4016,3161,2115,2262,1745203093489917842
8830521,4036,3188,2122,2274,1745203093489917842
8831521,4050,3206,2133,2284,1745203093489917842
8832521,4059,3212,2146,2290,1745203093489917842
8833521,4066,3210,2161,2294,1745203093489917842
8834521,4070,3208,2173,2299,1745203093489917842
8835521,4073,3220,2187,2302,1745203093489917842
8836521,4076,3252,2197,2302,1745203093489917842
8837522,4076,3302,2210,2297,1745203093489917842
8838522,4077,3369,2225,2286,1745203093489917842
8839522,4080,3443,2243,2270,1745203093489917842
8840522,4079,3525,2259,2249,1745203093554845895
8841522,4082,3602,2272,2220,1745203093554845895
8842522,4081,3705,2282,2182,1745203093554845895
8843522,4081,3811,2288,2133,1745203093554845895
8844522,4081,3889,2294,2077,1745203093554845895
8845522,4083,3942,2304,2024,1745203093554845895
8846522,4083,3983,2317,1984,1745203093554845895
8847522,4082,4011,2334,1958,1745203093554845895
8848522,4085,4030,2352,1945,1745203093554845895
8849523,4085,4047,2371,1940,1745203093554845895
8850523,4083,4057,2392,1936,1745203093554845895
8851523,4084,4064,2411,1930,1745203093554845895
8852523,4084,4069,2430,1915,1745203093554845895
8853523,4085,4073,2443,1891,1745203093554845895
8854523,4086,4076,2450,1867,1745203093554845895
8855523,4085,4078,2452,1850,1745203093554845895
8856523,4085,4080,2451,1842,1745203093554845895
8857523,4085,4081,2445,1843,1745203093554845895
8858523,4085,4081,2438,1849,1745203093554845895
8859523,4085,4082,2428,1859,1745203093554845895
8860523,4085,4082,2422,1865,1745203093554845895
8861524,4084,4082,2417,1866,1745203093554845895
8862524,4085,4083,2418,1872,1745203093554845895
8863524,4085,4083,2419,1883,1745203093554845895
8864524,4085,4084,2424,1894,1745203093554845895
8865524,4085,4083,2418,1906,1745203093554845895
8866524,4085,4082,2425,1911,1745203093554845895
8867524,4082,4061,2421,1907,1745203093554845895
8868524,4012,3990,2414,1878,1745203093554845895
8869524,3859,3884,2405,1840,1745203093554845895
8870524,3671,3768,2383,1793,1745203093554845895
8871524,3451,3603,2355,1770,1745203093554845895
8872524,3206,3465,2333,1754,1745203093554845895
8873525,2949,3328,2305,1748,1745203093554845895
8874525,2707,3203,2273,1748,1745203093554845895
8875525,2504,3093,2241,1754,1745203093554845895
8876525,2328,2998,2217,1763,1745203093554845895
8877525,2189,2915,2182,1772,1745203093554845895
8878525,2080,2842,2152,1779,1745203093554845895
8879525,1994,2776,2120,1780,1745203093554845895
8880525,1940,2718,2088,1780,1745203093554845895
8881525,1921,2669,2054,1782,1745203093554845895
8882525,1949,2636,2024,1792,1745203093554845895
8883525,2036,2622,1994,1817,1745203093554845895
8884525,2166,2625,1969,1854,1745203093554845895
8885526,2294,2632,1952,1892,1745203093554845895
8886526,2386,2632,1944,1929,1745203093554845895
8887526,2419,2618,1941,1953,1745203093554845895
8888526,2379,2590,1939,1966,1745203093554845895
8889526,2262,2549,1937,1968,1745203093554845895
8890526,2070,2481,1934,1958,1745203093554845895
8891526,1824,2392,1930,1948,1745203093554845895
8892526,1557,2286,1930,1941,1745203093554845895
8893526,1260,2168,1941,1937,1745203093554845895
8894526,990,2044,1953,1940,1745203093554845895
8895526,785,1928,1971,1944,1745203093554845895
8896526,626,1821,1981,1942,1745203093554845895
8897527,509,1728,1987,1944,1745203093554845895
8898527,410,1648,1988,1942,1745203093605181477
8899527,330,1582,1984,1947,1745203093605181477
8900527,267,1535,1979,1960,1745203093605181477
8901527,218,1505,1976,1969,1745203093605181477
8902527,177,1490,1971,1971,1745203093605181477
8903527,146,1506,1969,1969,1745203093605181477
8904527,128,1541,1971,1966,1745203093605181477
8905527,193,1602,1976,1970,1745203093605181477
8906527,337,1672,1982,1974,1745203093605181477
8907527,511,1747,1988,1994,1745203093605181477
8908527,694,1820,1994,2009,1745203093605181477
8909528,860,1885,2002,2021,1745203093605181477
8910528,997,1939,2008,2026,1745203093605181477
8911528,1097,1977,2012,2029,1745203093605181477
8912528,1152,2000,2017,2034,1745203093605181477
8913528,1154,2005,2021,2039,1745203093605181477
8914528,1116,2006,2025,2048,1745203093605181477
8915528,1068,2012,2027,2054,1745203093605181477
8916528,1051,2032,2028,2066,1745203093605181477
8917528,1094,2072,2028,2073,1745203093605181477
8918528,1204,2130,2030,2070,1745203093605181477
8919528,1368,2210,2035,2059,1745203093605181477
8920528,1585,2309,2037,2056,1745203093605181477
8921529,1869,2425,2041,2057,1745203093605181477
8922529,2224,2559,2042,2058,1745203093605181477
8923529,2634,2702,2036,2061,1745203093605181477
8924529,3010,2858,2015,2074,1745203093605181477
8925529,3299,3004,1987,2096,1745203093605181477
8926529,3516,3123,1950,2119,1745203093605181477
8927529,3668,3203,1910,2140,1745203093605181477
8928529,3784,3234,1883,2162,1745203093605181477
8929529,3861,3218,1869,2172,1745203093605181477
8930529,3797,3157,1883,2173,1745203093605181477
8931529,3572,3065,1917,2163,1745203093605181477
8932529,3217,2947,1972,2162,1745203093605181477
8933530,2789,2812,2044,2169,1745203093605181477
8934530,2345,2673,2124,2177,1745203093605181477
8935530,1908,2550,2193,2187,1745203093605181477
8936530,1523,2419,2247,2193,1745203093605181477
8937530,1187,2310,2277,2196,1745203093605181477
8938531,939,2210,2284,2190,1745203093605181477
8939530,738,2117,2280,2170,1745203093605181477
8940530,588,2030,2267,2133,1745203093605181477
8941530,478,1956,2242,2098,1745203093605181477
8942530,384,1904,2223,2069,1745203093605181477
8943530,308,1882,2193,2048,1745203093605181477
8944530,249,1885,2145,2029,1745203093605181477
8945531,213,1894,2085,2019,1745203093605181477
8946531,200,1899,2008,2021,1745203093605181477
8947531,176,1882,1926,2034,1745203093605181477
8948531,144,1843,1853,2048,1745203093605181477
8949531,118,1782,1799,2054,1745203093605181477
8950531,98,1704,1768,2060,1745203093605181477
8951531,83,1611,1750,2073,1745203093605181477
8952531,70,1514,1744,2075,1745203093605181477
8953531,62,1402,1744,2080,1745203093605181477
8954531,53,1290,1754,2076,1745203093605181477
8955531,49,1184,1768,2064,1745203093605181477
8956531,44,1086,1790,2048,1745203093666520864
8957532,40,1001,1817,2034,1745203093666520864
8958532,37,930,1852,2028,1745203093666520864
8959532,35,872,1899,2024,1745203093666520864
8960532,33,826,1953,2021,1745203093666520864
8961532,32,795,2010,2018,1745203093666520864
8962532,30,786,2059,2011,1745203093666520864
8963532,29,800,2100,2004,1745203093666520864
8964532,28,837,2139,1999,1745203093666520864
8965532,28,880,2166,2000,1745203093666520864
8966532,27,914,2180,2008,1745203093666520864
8967532,26,929,2178,2020,1745203093666520864
8968532,26,917,2163,2034,1745203093666520864
8969533,26,880,2140,2053,1745203093666520864
8970533,26,824,2109,2067,1745203093666520864
8971533,25,756,2077,2080,1745203093666520864
8972533,25,686,2048,2092,1745203093666520864
8973533,25,607,2018,2101,1745203093666520864
8974533,25,526,1992,2107,1745203093666520864
8975533,25,457,1968,2112,1745203093666520864
8976533,26,386,1944,2111,1745203093666520864
8977533,24,331,1915,2112,1745203093666520864
8978533,25,293,1890,2113,1745203093666520864
8979533,24,275,1864,2114,1745203093666520864
8980533,24,274,1840,2115,1745203093666520864
8981534,24,288,1816,2117,1745203093666520864
8982534,24,329,1790,2121,1745203093666520864
8983534,24,400,1761,2122,1745203093666520864
8984534,24,493,1728,2123,1745203093666520864
8985534,32,582,1695,2122,1745203093666520864
8986534,113,675,1669,2120,1745203093666520864
8987534,241,751,1651,2117,1745203093666520864
8988534,355,800,1635,2116,1745203093666520864
8989534,418,820,1625,2116,1745203093666520864
8990534,411,815,1618,2117,1745203093666520864
8991534,344,794,1621,2118,1745203093666520864
8992534,256,755,1638,2121,1745203093666520864
8993535,194,702,1646,2119,1745203093666520864
8994535,150,643,1666,2118,1745203093666520864
8995535,117,586,1684,2118,1745203093666520864
8996535,94,542,1700,2117,1745203093666520864
8997535,75,514,1709,2114,1745203093666520864
8998535,62,511,1714,2117,1745203093666520864
8999535,52,511,1714,2109,1745203093666520864
9000535,45,529,1706,2106,1745203093666520864
9001535,41,560,1691,2107,1745203093666520864
9002535,101,616,1676,2107,1745203093666520864
9003535,300,701,1665,2109,1745203093666520864
9004535,574,806,1662,2115,1745203093666520864
9005536,883,916,1673,2110,1745203093666520864
9006536,1169,1015,1696,2113,1745203093666520864
9007536,1388,1094,1720,2105,1745203093666520864
9008536,1514,1144,1746,2118,1745203093666520864
9009536,1529,1163,1768,2121,1745203093666520864
9010536,1439,1154,1788,2126,1745203093666520864
9011536,1275,1119,1803,2126,1745203093666520864
9012536,1059,1065,1813,2132,1745203093666520864
9013536,814,991,1813,2134,1745203093666520864
9014536,625,913,1803,2138,1745203093722478426
9015536,494,842,1781,2142,1745203093722478426
9016536,385,785,1748,2142,1745203093722478426
9017537,301,749,1711,2147,1745203093722478426
9018537,238,734,1677,2152,1745203093722478426
9019537,190,740,1651,2161,1745203093722478426
9020537,153,763,1629,2173,1745203093722478426
9021537,129,801,1611,2184,1745203093722478426
9022537,194,867,1600,2188,1745203093722478426
9023537,386,961,1602,2188,1745203093722478426
9024537,662,1074,1625,2187,1745203093722478426
9025537,981,1194,1674,2185,1745203093722478426
9026537,1282,1294,1736,2176,1745203093722478426
9027537,1524,1376,1807,2161,1745203093722478426
9028537,1672,1430,1878,2150,1745203093722478426
9029538,1728,1457,1939,2141,1745203093722478426
9030538,1688,1455,1978,2143,1745203093722478426
9031538,1572,1433,1989,2150,1745203093722478426
9032538,1409,1389,1973,2161,1745203093722478426
9033538,1194,1330,1945,2168,1745203093722478426
9034538,964,1265,1915,2173,1745203093722478426
9035538,752,1205,1891,2170,1745203093722478426
9036538,587,1161,1869,2160,1745203093722478426
9037538,496,1134,1845,2148,1745203093722478426
9038538,464,1129,1829,2133,1745203093722478426
9039538,497,1141,1822,2125,1745203093722478426
9040538,570,1170,1828,2109,1745203093722478426
9041539,693,1214,1840,2093,1745203093722478426
9042539,877,1281,1843,2072,1745203093722478426
9043539,1145,1380,1836,2048,1745203093722478426
9044539,1481,1499,1828,2018,1745203093722478426
9045540,1836,1605,1822,1996,1745203093722478426
9046539,2164,1709,1788,1985,1745203093722478426
9047539,2430,1792,1723,1981,1745203093722478426
9048539,2592,1849,1636,1987,1745203093722478426
9049539,2652,1872,1555,2002,1745203093722478426
9050539,2597,1869,1512,2027,1745203093722478426
9051539,2462,1840,1498,2054,1745203093722478426
9052539,2249,1792,1524,2080,1745203093722478426
9053540,1984,1732,1589,2097,1745203093722478426
9054540,1708,1665,1689,2106,1745203093722478426
9055540,1465,1600,1812,2108,1745203093722478426
9056540,1265,1552,1944,2100,1745203093722478426
9057540,1129,1524,2084,2090,1745203093722478426
9058540,1057,1504,2209,2071,1745203093722478426
9059540,1043,1500,2301,2050,1745203093722478426
9060540,1083,1512,2356,2037,1745203093722478426
9061540,1171,1535,2380,2026,1745203093722478426
9062540,1325,1586,2379,2012,1745203093722478426
9063540,1562,1670,2360,1993,1745203093722478426
9064540,1877,1776,2331,1967,1745203093722478426
9065541,2220,1886,2300,1934,1745203093722478426
9066541,2536,1978,2264,1904,1745203093722478426
9067541,2772,2052,2232,1882,1745203093722478426
9068541,2916,2098,2214,1873,1745203093722478426
9069541,2944,2114,2217,1871,1745203093722478426
9070541,2859,2099,2238,1873,1745203093722478426
9071541,2686,2062,2266,1873,1745203093722478426
9072541,2458,1999,2294,1875,1745203093791956906
9073541,2179,1921,2305,1885,1745203093791956906
9074541,1888,1834,2303,1903,1745203093791956906
9075541,1628,1756,2297,1928,1745203093791956906
9076541,1428,1692,2278,1949,1745203093791956906
9077542,1286,1650,2248,1963,1745203093791956906
9078542,1210,1633,2212,1968,1745203093791956906
9079542,1193,1638,2176,1950,1745203093791956906
9080542,1229,1659,2154,1923,1745203093791956906
9081542,1314,1698,2150,1896,1745203093791956906
9082542,1467,1764,2150,1876,1745203093791956906
9083542,1700,1860,2148,1870,1745203093791956906
9084542,2011,1977,2141,1879,1745203093791956906
9085542,2348,2100,2138,1892,1745203093791956906
9086542,2646,2201,2142,1905,1745203093791956906
9087542,2880,2276,2146,1913,1745203093791956906
9088542,3002,2323,2142,1922,1745203093791956906
9089543,2997,2334,2139,1924,1745203093791956906
9090543,2869,2315,2154,1925,1745203093791956906
9091543,2659,2271,2198,1925,1745203093791956906
9092543,2403,2204,2257,1928,1745203093791956906
9093543,2107,2121,2323,1933,1745203093791956906
9094543,1811,2034,2372,1945,1745203093791956906
9095543,1549,1957,2394,1958,1745203093791956906
9096544,1332,1891,2390,1970,1745203093791956906
9097543,1170,1846,2366,1977,1745203093791956906
9098543,1067,1820,2331,1978,1745203093791956906
9099543,1026,1814,2289,1978,1745203093791956906
9100545,1046,1823,2255,1974,1745203093791956906
9101544,1130,1851,2229,1969,1745203093791956906
9102544,1299,1904,2216,1968,1745203093791956906
9103544,1559,1991,2205,1966,1745203093791956906
9104545,1912,2100,2199,1966,1745203093791956906
9105544,2306,2209,2200,1977,1745203093791956906
9106544,2686,2306,2198,1981,1745203093791956906
9107544,3029,2377,2185,1985,1745203093791956906
9108544,3293,2418,2168,1987,1745203093791956906
9109544,3456,2429,2144,1979,1745203093791956906
9110544,3540,2415,2141,1973,1745203093791956906
9111544,3539,2379,2148,1968,1745203093791956906
9112544,3468,2321,2170,1962,1745203093791956906
9113545,3330,2251,2186,1965,1745203093791956906
9114545,3168,2174,2170,1969,1745203093791956906
9115545,3027,2104,2117,1977,1745203093791956906
9116545,2939,2045,2040,1990,1745203093791956906
9117545,2924,2010,1955,2001,1745203093791956906
9118545,2995,1995,1883,2017,1745203093791956906
9119545,3121,2003,1825,2030,1745203093791956906
9120545,3274,2024,1787,2042,1745203093791956906
9121545,3456,2057,1773,2043,1745203093791956906
9122545,3639,2104,1787,2040,1745203093791956906
9123545,3768,2168,1818,2038,1745203093791956906
9124545,3858,2244,1849,2036,1745203093791956906
9125546,3923,2316,1867,2039,1745203093791956906
9126546,3969,2372,1883,2044,1745203093791956906
9127546,3996,2408,1896,2056,1745203093791956906
9128546,4025,2420,1925,2069,1745203093791956906
9129546,4042,2409,1955,2082,1745203093791956906
9130546,4054,2380,1996,2090,1745203093840215007
9131546,4062,2343,2056,2099,1745203093840215007
9132546,4067,2296,2134,2109,1745203093840215007
9133546,4072,2241,2222,2122,1745203093840215007
9134546,4013,2188,2308,2134,1745203093840215007
9135546,3848,2144,2379,2147,1745203093840215007
9136546,3652,2114,2413,2154,1745203093840215007
9137547,3482,2102,2389,2160,1745203093840215007
9138547,3342,2105,2317,2158,1745203093840215007
9139547,3253,2122,2222,2154,1745203093840215007
9140547,3201,2149,2127,2147,1745203093840215007
9141547,3185,2186,2051,2140,1745203093840215007
9142547,3235,2240,1996,2131,1745203093840215007
9143547,3376,2317,1968,2124,1745203093840215007
9144547,3582,2411,1969,2109,1745203093840215007
9145547,3745,2499,2001,2098,1745203093840215007
9146547,3859,2563,2058,2091,1745203093840215007
9147547,3934,2616,2122,2090,1745203093840215007
9148547,3956,2644,2198,2091,1745203093840215007
9149548,3854,2643,2285,2092,1745203093840215007
9150548,3648,2613,2369,2092,1745203093840215007
9151548,3392,2564,2441,2093,1745203093840215007
9152548,3096,2507,2481,2093,1745203093840215007
9153548,2782,2429,2484,2094,1745203093840215007
9154548,2484,2355,2448,2100,1745203093840215007
9155548,2214,2290,2389,2108,1745203093840215007
9156548,2000,2240,2322,2114,1745203093840215007
9157548,1857,2202,2251,2121,1745203093840215007
9158548,1780,2182,2185,2128,1745203093840215007
9159549,1764,2177,2123,2137,1745203093840215007
9160548,1802,2184,2064,2152,1745203093840215007
9161549,1884,2200,1998,2164,1745203093840215007
9162549,2026,2238,1937,2177,1745203093840215007
9163549,2240,2301,1880,2181,1745203093840215007
9164549,2503,2379,1848,2187,1745203093840215007
9165549,2771,2459,1840,2189,1745203093840215007
9166549,3017,2522,1876,2187,1745203093840215007
9167549,3198,2559,1928,2180,1745203093840215007
9168549,3293,2566,1997,2174,1745203093840215007
9169549,3288,2553,2068,2164,1745203093840215007
9170549,3182,2505,2120,2157,1745203093840215007
9171549,3008,2440,2164,2149,1745203093840215007
9172549,2781,2359,2179,2141,1745203093840215007
9173550,2526,2261,2209,2132,1745203093840215007
9174550,2253,2173,2246,2121,1745203093840215007
9175550,1998,2085,2277,2108,1745203093840215007
9176550,1781,2006,2275,2100,1745203093840215007
9177550,1612,1943,2234,2091,1745203093840215007
9178550,1489,1883,2163,2086,1745203093840215007
9179550,1387,1848,2077,2081,1745203093840215007
9180550,1305,1817,1984,2074,1745203093840215007
9181550,1238,1777,1922,2064,1745203093840215007
9182550,1201,1755,1900,2052,1745203093840215007
9183550,1212,1745,1917,2037,1745203093840215007
9184550,1263,1743,1962,2027,1745203093840215007
9185551,1316,1736,2024,2022,1745203093840215007
9186551,1330,1715,2092,2018,1745203093840215007
9187551,1273,1672,2152,2022,1745203093840215007
9188551,1138,1606,2188,2033,1745203093903526512
9189551,950,1525,2189,2050,1745203093903526512
9190551,753,1421,2159,2068,1745203093903526512
9191551,598,1308,2108,2081,1745203093903526512
9192551,487,1195,2036,2086,1745203093903526512
9193551,392,1090,1942,2080,1745203093903526512
9194551,314,1001,1842,2066,1745203093903526512
9195551,254,931,1748,2050,1745203093903526512
9196551,206,875,1678,2030,1745203093903526512
9197552,168,831,1649,2020,1745203093903526512
9198552,139,820,1653,2012,1745203093903526512
9199552,114,863,1693,2006,1745203093903526512
9200552,161,962,1766,2004,1745203093903526512
9201552,402,1101,1854,2005,1745203093903526512
9202552,786,1269,1943,2001,1745203093903526512
9203552,1283,1457,1998,1998,1745203093903526512
9204552,1840,1650,2050,1992,1745203093903526512
9205552,2388,1850,2106,1980,1745203093903526512
9206552,2813,2040,2164,1962,1745203093903526512
9207552,3149,2204,2229,1945,1745203093903526512
9208552,3404,2331,2286,1931,1745203093903526512
9209553,3586,2422,2325,1915,1745203093903526512
9210553,3725,2483,2353,1887,1745203093903526512
9211553,3829,2520,2362,1852,1745203093903526512
9212553,3901,2530,2363,1826,1745203093903526512
9213553,3911,2521,2359,1812,1745203093903526512
9214553,3808,2500,2348,1812,1745203093903526512
9215553,3650,2480,2326,1821,1745203093903526512
9216553,3518,2473,2296,1842,1745203093903526512
9217553,3436,2483,2267,1875,1745203093903526512
9218553,3425,2517,2248,1925,1745203093903526512
9219553,3488,2559,2240,1979,1745203093903526512
9220553,3593,2609,2240,2024,1745203093903526512
9221554,3748,2683,2245,2059,1745203093903526512
9222554,3862,2761,2243,2083,1745203093903526512
9223554,3936,2862,2196,2101,1745203093903526512
9224554,3982,2975,2115,2123,1745203093903526512
9225554,4011,3083,2027,2148,1745203093903526512
9226554,4033,3176,1956,2166,1745203093903526512
9227554,4046,3250,1905,2192,1745203093903526512
9228554,4058,3300,1876,2208,1745203093903526512
9229554,4065,3328,1868,2225,1745203093903526512
9230554,4072,3333,1892,2236,1745203093903526512
9231554,4076,3321,1952,2248,1745203093903526512
9232554,4077,3291,2050,2262,1745203093903526512
9233555,4079,3247,2158,2275,1745203093903526512
9234555,4073,3200,2250,2283,1745203093903526512
9235555,3994,3158,2299,2278,1745203093903526512
9236555,3864,3128,2299,2263,1745203093903526512
9237555,3734,3109,2248,2239,1745203093903526512
9238555,3629,3102,2170,2224,1745203093903526512
9239555,3573,3106,2092,2225,1745203093903526512
9240555,3547,3123,2028,2228,1745203093903526512
9241555,3556,3136,1988,2234,1745203093903526512
9242555,3607,3162,1969,2233,1745203093903526512
9243555,3733,3203,1976,2227,1745203093903526512
9244555,3857,3253,2004,2221,1745203093903526512
9245556,3937,3307,2065,2216,1745203093903526512
9246556,3988,3346,2146,2212,1745203093964514132
9247556,4021,3368,2226,2209,1745203093964514132
9248556,4044,3369,2285,2202,1745203093964514132
9249556,4045,3345,2322,2190,1745203093964514132
9250556,3945,3300,2337,2169,1745203093964514132
9251557,3756,3241,2329,2163,1745203093964514132
9252556,3507,3169,2293,2150,1745203093964514132
9253556,3227,3091,2236,2147,1745203093964514132
9254556,2952,3014,2187,2145,1745203093964514132
9255556,2708,2940,2172,2137,1745203093964514132
9256556,2515,2876,2208,2127,1745203093964514132
9257557,2361,2822,2267,2112,1745203093964514132
9258557,2255,2778,2325,2096,1745203093964514132
9259557,2193,2745,2362,2078,1745203093964514132
9260557,2168,2722,2373,2058,1745203093964514132
9261557,2180,2714,2355,2038,1745203093964514132
9262557,2257,2726,2301,2012,1745203093964514132
9263557,2408,2762,2220,1972,1745203093964514132
9264557,2613,2814,2122,1934,1745203093964514132
9265557,2843,2869,2024,1906,1745203093964514132
9266557,3057,2921,1942,1884,1745203093964514132
9267557,3223,2964,1873,1874,1745203093964514132
9268557,3324,2992,1819,1874,1745203093964514132
9269558,3356,3004,1792,1880,1745203093964514132
9270558,3324,3004,1800,1888,1745203093964514132
9271558,3249,2989,1834,1897,1745203093964514132
9272558,3142,2964,1891,1902,1745203093964514132
9273558,3014,2937,1968,1899,1745203093964514132
9274558,2889,2910,2049,1885,1745203093964514132
9275558,2796,2892,2118,1869,1745203093964514132
9276558,2753,2893,2174,1860,1745203093964514132
9277558,2768,2905,2213,1860,1745203093964514132
9278558,2840,2929,2232,1870,1745203093964514132
9279558,2958,2966,2217,1884,1745203093964514132
9280558,3107,3010,2176,1913,1745203093964514132
9281559,3283,3058,2133,1937,1745203093964514132
9282559,3494,3117,2091,1960,1745203093964514132
9283559,3668,3187,2079,1976,1745203093964514132
9284559,3796,3263,2121,1982,1745203093964514132
9285559,3884,3332,2190,1982,1745203093964514132
9286559,3946,3381,2296,1976,1745203093964514132
9287559,3989,3405,2409,1971,1745203093964514132
9288559,4019,3404,2515,1966,1745203093964514132
9289559,4038,3373,2594,1966,1745203093964514132
9290559,4039,3322,2661,1966,1745203093964514132
9291559,4007,3256,2690,1967,1745203093964514132
9292559,3830,3178,2680,1968,1745203093964514132
9293560,3578,3100,2628,1966,1745203093964514132
9294560,3300,3033,2552,1964,1745203093964514132
9295560,3045,2980,2456,1958,1745203093964514132
9296560,2842,2942,2371,1950,1745203093964514132
9297560,2683,2916,2300,1937,1745203093964514132
9298560,2571,2899,2243,1921,1745203093964514132
9299560,2501,2887,2199,1906,1745203093964514132
9300560,2442,2876,2180,1898,1745203093964514132
9301560,2400,2866,2169,1897,1745203093964514132
9302560,2400,2865,2148,1905,1745203093964514132
9303560,2465,2880,2109,1920,1745203093964514132
9304560,2568,2902,2061,1942,1745203094021452153
9305561,2709,2925,2033,1975,1745203094021452153
9306561,2816,2934,2057,2014,1745203094021452153
9307561,2867,2927,2125,2057,1745203094021452153
9308561,2849,2898,2219,2093,1745203094021452153
9309561,2754,2848,2313,2121,1745203094021452153
9310561,2594,2783,2405,2137,1745203094021452153
9311561,2406,2707,2487,2152,1745203094021452153
9312561,2199,2622,2546,2168,1745203094021452153
9313561,1975,2538,2549,2179,1745203094021452153
9314561,1750,2448,2496,2176,1745203094021452153
9315561,1546,2363,2389,2162,1745203094021452153
9316561,1392,2296,2262,2153,1745203094021452153
9317562,1277,2242,2138,2157,1745203094021452153
9318562,1205,2201,2024,2171,1745203094021452153
9319562,1167,2167,1936,2194,1745203094021452153
9320562,1147,2137,1859,2214,1745203094021452153
9321562,1134,2112,1798,2227,1745203094021452153
9322562,1155,2096,1764,2225,1745203094021452153
9323562,1234,2094,1757,2205,1745203094021452153
9324562,1369,2109,1770,2180,1745203094021452153
9325562,1526,2128,1812,2153,1745203094021452153
9326562,1653,2136,1885,2130,1745203094021452153
9327562,1736,2131,1981,2112,1745203094021452153
9328562,1741,2105,2076,2097,1745203094021452153
9329563,1656,2061,2144,2080,1745203094021452153
9330563,1517,2005,2186,2062,1745203094021452153
9331563,1339,1947,2206,2043,1745203094021452153
9332563,1145,1881,2223,2025,1745203094021452153
9333563,957,1813,2232,2011,1745203094021452153
9334564,786,1750,2235,2000,1745203094021452153
9335563,658,1704,2226,1992,1745203094021452153
9336563,601,1682,2192,1981,1745203094021452153
9337563,641,1690,2131,1974,1745203094021452153
9338563,773,1728,2064,1972,1745203094021452153
9339563,978,1793,2012,1972,1745203094021452153
9340563,1228,1880,1985,1980,1745203094021452153
9341564,1496,1977,1974,1988,1745203094021452153
9342564,1784,2099,1971,2005,1745203094021452153
9343564,2134,2240,1973,2030,1745203094021452153
9344564,2540,2397,1965,2056,1745203094021452153
9345564,2936,2559,1933,2052,1745203094021452153
9346564,3248,2706,1887,2033,1745203094021452153
9347564,3484,2845,1850,2014,1745203094021452153
9348564,3644,2960,1867,2004,1745203094021452153
9349564,3772,3045,1932,2012,1745203094021452153
9350564,3859,3104,2035,2035,1745203094021452153
9351564,3939,3133,2183,2072,1745203094021452153
9352564,3963,3136,2346,2096,1745203094021452153
9353565,3880,3114,2486,2101,1745203094021452153
9354565,3688,3069,2564,2080,1745203094021452153
9355565,3461,3017,2594,2051,1745203094021452153
9356565,3237,2964,2564,2027,1745203094021452153
9357565,3042,2914,2494,2020,1745203094021452153
9358565,2881,2867,2396,2018,1745203094021452153
9359565,2745,2825,2301,2001,1745203094021452153
9360565,2627,2784,2230,1981,1745203094021452153
9361565,2534,2746,2179,1964,1745203094021452153
9362565,2476,2721,2147,1950,1745203094072861371
9363565,2494,2716,2138,1950,1745203094072861371
9364565,2568,2722,2172,1975,1745203094072861371
9365566,2663,2720,2233,2018,1745203094072861371
9366566,2715,2701,2288,2055,1745203094072861371
9367566,2690,2656,2319,2081,1745203094072861371
9368566,2569,2581,2316,2104,1745203094072861371
9369566,2368,2486,2277,2118,1745203094072861371
9370566,2109,2354,2215,2131,1745203094072861371
9371566,1802,2209,2137,2136,1745203094072861371
9372566,1475,2058,2058,2137,1745203094072861371
9373566,1152,1905,1993,2133,1745203094072861371
9374566,905,1761,1962,2128,1745203094072861371
9375566,718,1629,1977,2117,1745203094072861371
9376566,572,1525,2028,2106,1745203094072861371
9377567,466,1428,2107,2097,1745203094072861371
9378567,374,1350,2188,2089,1745203094072861371
9379567,302,1289,2242,2083,1745203094072861371
9380567,245,1243,2250,2081,1745203094072861371
9381567,201,1208,2204,2080,1745203094072861371
9382567,163,1194,2118,2080,1745203094072861371
9383567,135,1206,2011,2077,1745203094072861371
9384567,145,1245,1912,2074,1745203094072861371
9385567,257,1293,1828,2073,1745203094072861371
9386567,409,1337,1769,2072,1745203094072861371
9387567,531,1365,1737,2074,1745203094072861371
9388567,599,1365,1730,2072,1745203094072861371
9389568,574,1332,1739,2073,1745203094072861371
9390568,466,1272,1762,2070,1745203094072861371
9391568,348,1192,1802,2065,1745203094072861371
9392568,265,1100,1850,2056,1745203094072861371
9393568,211,1001,1898,2043,1745203094072861371
9394568,160,897,1934,2038,1745203094072861371
9395568,128,801,1952,2033,1745203094072861371
