timestamp,emg0,emg1,emg2,emg3,pkt_time_ns
9942385,4078,4073,4075,4076,1745225836908629273
9943382,4067,4073,4074,4078,1745225836908629273
9944382,4067,4072,4074,4084,1745225836908629273
9945382,4067,4073,4075,4076,1745225836908629273
9946383,4068,4072,4075,4077,1745225836908629273
9947383,4067,4073,4075,4076,1745225836908629273
9948383,4068,4073,4077,4076,1745225836908629273
9949383,4067,4073,4075,4076,1745225836908629273
9950383,4067,4073,4075,4077,1745225836908629273
9951383,4068,4072,4076,4076,1745225836908629273
9952383,4067,4073,4075,4077,1745225836908629273
9953383,4068,4072,4075,4076,1745225836908629273
9954383,4067,4073,4075,4077,1745225836908629273
9955383,4068,4073,4075,4077,1745225836908629273
9956383,4068,4073,4075,4077,1745225836908629273
9957383,4067,4073,4075,4076,1745225836908629273
9958384,4067,4073,4075,4077,1745225836908629273
9959384,4068,4073,4076,4077,1745225836908629273
9960384,4067,4073,4075,4078,1745225836908629273
9961384,4068,4071,4075,4090,1745225836908629273
9962384,4068,4072,4074,4077,1745225836908629273
9963384,4068,4042,4075,4077,1745225836908629273
9964384,4069,3982,4075,4077,1745225836908629273
9965384,4067,3909,4075,4076,1745225836908629273
9966384,4069,3829,4074,4077,1745225836908629273
9967384,4068,3736,4075,4076,1745225836908629273
9968384,4068,3629,4075,4077,1745225836908629273
9969384,4068,3523,4075,4077,1745225836908629273
9970385,4073,3407,4074,4077,1745225836908629273
9971385,4069,3302,4075,4077,1745225836908629273
9972385,4068,3189,4075,4076,1745225836908629273
9973385,4068,3085,4074,4076,1745225836908629273
9974385,4068,2979,4076,4085,1745225836908629273
9975385,4068,2866,4077,4081,1745225836908629273
9976385,4069,2748,4076,4081,1745225836908629273
9977385,4070,2630,4077,4084,1745225836908629273
9978385,4070,2520,4078,4080,1745225836908629273
9979385,4069,2400,4077,4079,1745225836908629273
9980385,4069,2286,4077,4081,1745225836908629273
9981385,4070,2173,4077,4080,1745225836908629273
9982386,4069,2068,4078,4079,1745225836908629273
9983386,4070,1972,4077,4080,1745225836908629273
9984386,4070,1890,4076,4080,1745225836908629273
9985386,4070,1819,4077,4080,1745225836908629273
9986386,4070,1750,4077,4080,1745225836908629273
9987386,4070,1676,4076,4081,1745225836908629273
9988386,4071,1592,4077,4080,1745225836908629273
9989386,4069,1510,4036,4080,1745225836908629273
9990386,4070,1417,3878,4080,1745225836908629273
9991386,4069,1326,3652,4077,1745225836908629273
9992386,4069,1235,3402,4081,1745225836908629273
9993386,4070,1142,3134,4083,1745225836908629273
9994387,4070,1049,2868,4011,1745225836908629273
9995387,4072,952,2602,3798,1745225836908629273
9996387,4072,851,2341,3505,1745225836908629273
9997387,4072,745,2068,3158,1745225836908629273
9998387,4028,630,1790,2802,1745225836908629273
9999387,3808,513,1521,2460,1745225836908629273
10000387,3467,417,1244,2118,1745225836965304067
10001387,3060,334,979,1784,1745225836965304067
10002387,2638,268,774,1461,1745225836965304067
10003387,2228,217,616,1146,1745225836965304067
10004387,1806,177,501,905,1745225836965304067
10005387,1405,145,402,721,1745225836965304067
10006388,1100,120,323,575,1745225836965304067
10007388,870,100,261,470,1745225836965304067
10008388,694,85,212,380,1745225836965304067
10009388,556,74,173,307,1745225836965304067
10010388,455,65,142,250,1745225836965304067
10011388,367,57,120,203,1745225836965304067
10012388,297,51,100,166,1745225836965304067
10013388,242,46,86,137,1745225836965304067
10014388,199,43,74,114,1745225836965304067
10015388,163,41,65,97,1745225836965304067
10016388,137,38,57,77,1745225836965304067
10017390,115,36,52,71,1745225836965304067
10018389,99,35,46,61,1745225836965304067
10019389,86,33,43,54,1745225836965304067
10020390,75,33,41,49,1745225836965304067
10021389,65,32,36,44,1745225836965304067
10022389,59,30,35,41,1745225836965304067
10023390,53,29,35,38,1745225836965304067
10024389,50,29,33,36,1745225836965304067
10025389,46,29,33,34,1745225836965304067
10026389,44,29,32,33,1745225836965304067
10027389,42,29,29,32,1745225836965304067
10028389,40,29,29,30,1745225836965304067
10029389,38,29,29,29,1745225836965304067
10030390,37,28,29,29,1745225836965304067
10031390,36,28,29,28,1745225836965304067
10032390,35,28,29,28,1745225836965304067
10033390,35,29,28,28,1745225836965304067
10034390,34,28,28,28,1745225836965304067
10035390,33,29,28,27,1745225836965304067
10036390,33,27,28,27,1745225836965304067
10037390,33,27,28,26,1745225836965304067
10038390,33,28,28,26,1745225836965304067
10039390,32,28,27,27,1745225836965304067
10040390,33,28,27,27,1745225836965304067
10041390,32,28,27,26,1745225836965304067
10042391,32,28,27,25,1745225836965304067
10043391,33,28,27,26,1745225836965304067
10044391,32,28,27,26,1745225836965304067
10045391,32,28,27,25,1745225836965304067
10046391,31,28,27,25,1745225836965304067
10047391,32,28,27,26,1745225836965304067
10048391,31,27,27,32,1745225836965304067
10049391,31,28,27,25,1745225836965304067
10050391,30,27,26,25,1745225836965304067
10051391,32,28,26,26,1745225836965304067
10052391,31,27,26,25,1745225836965304067
10053391,30,27,25,25,1745225836965304067
10054392,30,27,25,25,1745225836965304067
10055392,31,26,25,25,1745225836965304067
10056392,30,27,25,25,1745225836965304067
10057392,30,28,25,25,1745225836965304067
10058392,32,29,25,25,1745225837025292842
10059392,30,61,25,25,1745225837025292842
10060392,31,132,25,25,1745225837025292842
10061392,30,228,26,25,1745225837025292842
10062392,30,340,25,25,1745225837025292842
10063392,29,473,25,25,1745225837025292842
10064394,29,610,25,25,1745225837025292842
10065393,33,770,25,25,1745225837025292842
10066393,30,937,25,25,1745225837025292842
10067393,30,1108,25,25,1745225837025292842
10068393,32,1277,25,25,1745225837025292842
10069393,30,1446,25,24,1745225837025292842
10070393,30,1608,25,25,1745225837025292842
10071393,30,1777,25,33,1745225837025292842
10072393,31,1945,25,24,1745225837025292842
10073393,31,2110,26,25,1745225837025292842
10074393,31,2272,25,25,1745225837025292842
10075393,30,2423,25,25,1745225837025292842
10076393,30,2559,25,25,1745225837025292842
10077393,30,2683,24,26,1745225837025292842
10078395,31,2799,25,25,1745225837025292842
10079394,33,2901,25,24,1745225837025292842
10080394,30,3016,25,24,1745225837025292842
10081394,32,3125,25,25,1745225837025292842
10082394,32,3240,27,26,1745225837025292842
10083394,30,3362,117,27,1745225837025292842
10084394,31,3494,319,25,1745225837025292842
10085394,32,3623,589,64,1745225837025292842
10086394,32,3750,907,235,1745225837025292842
10087394,32,3840,1241,502,1745225837025292842
10088394,32,3907,1570,816,1745225837025292842
10089394,32,3954,1908,1169,1745225837025292842
10090395,108,3989,2253,1534,1745225837025292842
10091395,333,4013,2592,1901,1745225837025292842
10092395,654,4029,2941,2287,1745225837025292842
10093395,1048,4040,3248,2674,1745225837025292842
10094395,1480,4048,3477,3037,1745225837025292842
10095395,1926,4052,3637,3317,1745225837025292842
10096395,2405,4058,3763,3527,1745225837025292842
10097395,2822,4060,3852,3673,1745225837025292842
10098395,3152,4062,3915,3787,1745225837025292842
10099395,3402,4064,3961,3868,1745225837025292842
10100395,3583,4065,3994,3928,1745225837025292842
10101395,3717,4067,4017,3970,1745225837025292842
10102396,3818,4066,4032,3999,1745225837025292842
10103396,3890,4068,4045,4020,1745225837025292842
10104396,3941,4070,4053,4036,1745225837025292842
10105396,3977,4069,4061,4045,1745225837025292842
10106396,4003,4069,4062,4054,1745225837025292842
10107396,4022,4069,4066,4059,1745225837025292842
10108396,4036,4069,4068,4064,1745225837025292842
10109396,4046,4069,4069,4066,1745225837025292842
10110396,4052,4069,4072,4068,1745225837025292842
10111396,4058,4069,4072,4069,1745225837025292842
10112396,4061,4070,4072,4071,1745225837025292842
10113396,4064,4069,4073,4072,1745225837025292842
10114397,4067,4070,4074,4073,1745225837025292842
10115397,4068,4069,4074,4073,1745225837025292842
10116397,4070,4070,4075,4074,1745225837081734618
10117397,4072,4069,4075,4074,1745225837081734618
10118397,4071,4069,4074,4074,1745225837081734618
10119397,4072,4070,4074,4073,1745225837081734618
10120397,4073,4070,4074,4074,1745225837081734618
10121397,4073,4070,4075,4075,1745225837081734618
10122397,4073,4071,4075,4076,1745225837081734618
10123397,4074,4072,4074,4075,1745225837081734618
10124397,4075,4072,4075,4075,1745225837081734618
10125397,4074,4072,4075,4076,1745225837081734618
10126398,4075,4072,4074,4075,1745225837081734618
10127398,4075,4072,4075,4075,1745225837081734618
10128398,4075,4073,4075,4075,1745225837081734618
10129398,4075,4074,4075,4075,1745225837081734618
10130398,4075,4074,4075,4076,1745225837081734618
10131398,4075,4074,4075,4076,1745225837081734618
10132398,4075,4013,4075,4075,1745225837081734618
10133398,4075,3876,4076,4075,1745225837081734618
10134398,4076,3702,4075,4075,1745225837081734618
10135398,4076,3516,4075,4053,1745225837081734618
10136398,4076,3310,4075,4078,1745225837081734618
10137398,4076,3114,4074,4075,1745225837081734618
10138399,4078,2921,4078,4095,1745225837081734618
10139399,4076,2757,4074,4076,1745225837081734618
10140399,4078,2576,4076,4074,1745225837081734618
10141399,4078,2421,4078,4078,1745225837081734618
10142399,4078,2288,4076,4078,1745225837081734618
10143399,4078,2166,4041,4077,1745225837081734618
10144399,4078,2067,3911,4078,1745225837081734618
10145399,4079,1984,3735,4077,1745225837081734618
10146399,4078,1909,3546,4078,1745225837081734618
10147399,4078,1841,3346,4077,1745225837081734618
10148399,4078,1781,3152,4024,1745225837081734618
10149399,4078,1722,2968,3880,1745225837081734618
10150400,4080,1673,2798,3669,1745225837081734618
10151400,4065,1632,2637,3485,1745225837081734618
10152400,4064,1601,2499,3279,1745225837081734618
10153400,3939,1571,2356,3084,1745225837081734618
10154400,3728,1541,2229,2900,1745225837081734618
10155400,3480,1521,2109,2724,1745225837081734618
10156400,3206,1484,1988,2558,1745225837081734618
10157400,2934,1443,1870,2386,1745225837081734618
10158400,2680,1400,1753,2222,1745225837081734618
10159400,2452,1360,1640,2069,1745225837081734618
10160400,2237,1331,1537,1930,1745225837081734618
10161400,2048,1313,1453,1810,1745225837081734618
10162401,1879,1308,1374,1713,1745225837081734618
10163401,1741,1317,1313,1641,1745225837081734618
10164401,1626,1342,1270,1592,1745225837081734618
10165401,1535,1379,1242,1560,1745225837081734618
10166401,1451,1419,1221,1535,1745225837081734618
10167401,1371,1449,1204,1513,1745225837081734618
10168401,1297,1473,1185,1484,1745225837081734618
10169401,1228,1485,1165,1451,1745225837081734618
10170401,1163,1489,1143,1415,1745225837081734618
10171401,1101,1484,1121,1378,1745225837081734618
10172401,1044,1478,1099,1339,1745225837081734618
10173401,990,1474,1076,1300,1745225837081734618
10174402,935,1475,1056,1261,1745225837142033755
10175402,875,1480,1033,1213,1745225837142033755
10176402,808,1483,1002,1158,1745225837142033755
10177402,736,1486,968,1096,1745225837142033755
10178402,660,1488,927,1032,1745225837142033755
10179402,589,1490,888,970,1745225837142033755
10180402,524,1496,854,918,1745225837142033755
10181402,478,1508,826,877,1745225837142033755
10182402,438,1531,809,854,1745225837142033755
10183402,420,1553,808,852,1745225837142033755
10184402,419,1587,824,874,1745225837142033755
10185402,435,1626,853,908,1745225837142033755
10186403,458,1660,888,947,1745225837142033755
10187403,483,1689,922,980,1745225837142033755
10188403,507,1712,950,1008,1745225837142033755
10189403,520,1726,973,1029,1745225837142033755
10190403,540,1736,993,1044,1745225837142033755
10191403,558,1740,1009,1055,1745225837142033755
10192403,576,1742,1024,1065,1745225837142033755
10193405,592,1743,1037,1074,1745225837142033755
10194403,602,1748,1049,1078,1745225837142033755
10195403,603,1755,1056,1072,1745225837142033755
10196403,592,1757,1051,1051,1745225837142033755
10197403,570,1752,1038,1019,1745225837142033755
10198404,546,1749,1019,984,1745225837142033755
10199404,524,1749,999,954,1745225837142033755
10200404,511,1753,984,933,1745225837142033755
10201404,507,1757,977,924,1745225837142033755
10202404,511,1765,981,932,1745225837142033755
10203404,532,1781,1001,966,1745225837142033755
10204404,576,1804,1039,1020,1745225837142033755
10205404,629,1834,1088,1085,1745225837142033755
10206404,683,1865,1136,1148,1745225837142033755
10207404,737,1892,1181,1203,1745225837142033755
10208404,785,1914,1220,1250,1745225837142033755
10209404,829,1929,1254,1287,1745225837142033755
10210405,867,1940,1283,1317,1745225837142033755
10211405,899,1950,1309,1341,1745225837142033755
10212405,930,1958,1330,1362,1745225837142033755
10213405,956,1968,1349,1380,1745225837142033755
10214405,977,1978,1366,1392,1745225837142033755
10215405,990,1986,1377,1394,1745225837142033755
10216405,993,1986,1378,1380,1745225837142033755
10217405,988,1974,1369,1356,1745225837142033755
10218405,977,1953,1354,1333,1745225837142033755
10219405,966,1926,1339,1306,1745225837142033755
10220405,958,1899,1327,1291,1745225837142033755
10221405,957,1875,1321,1288,1745225837142033755
10222406,974,1859,1324,1302,1745225837142033755
10223406,1006,1856,1342,1338,1745225837142033755
10224406,1053,1869,1377,1392,1745225837142033755
10225406,1107,1896,1420,1452,1745225837142033755
10226406,1156,1933,1463,1508,1745225837142033755
10227406,1217,1973,1504,1548,1745225837142033755
10228406,1265,2012,1535,1585,1745225837142033755
10229406,1305,2044,1557,1613,1745225837142033755
10230406,1341,2075,1579,1636,1745225837142033755
10231407,1374,2096,1598,1653,1745225837142033755
10232406,1406,2112,1616,1669,1745225837199287815
10233406,1435,2123,1634,1682,1745225837199287815
10234407,1459,2129,1646,1692,1745225837199287815
10235407,1474,2129,1656,1693,1745225837199287815
10236407,1475,2115,1652,1681,1745225837199287815
10237407,1465,2089,1641,1658,1745225837199287815
10238407,1450,2049,1622,1629,1745225837199287815
10239407,1436,2011,1604,1605,1745225837199287815
10240407,1424,1982,1591,1588,1745225837199287815
10241407,1414,1965,1586,1582,1745225837199287815
10242407,1419,1958,1592,1594,1745225837199287815
10243407,1442,1963,1608,1625,1745225837199287815
10244407,1487,1979,1636,1673,1745225837199287815
10245407,1535,2008,1674,1729,1745225837199287815
10246408,1582,2044,1710,1780,1745225837199287815
10247408,1633,2083,1744,1824,1745225837199287815
10248408,1676,2117,1772,1864,1745225837199287815
10249408,1713,2145,1794,1894,1745225837199287815
10250408,1747,2164,1812,1918,1745225837199287815
10251408,1780,2178,1825,1934,1745225837199287815
10252408,1810,2184,1836,1945,1745225837199287815
10253408,1830,2193,1844,1953,1745225837199287815
10254408,1858,2203,1856,1954,1745225837199287815
10255408,1865,2210,1859,1958,1745225837199287815
10256408,1853,2208,1852,1922,1745225837199287815
10257408,1834,2173,1835,1885,1745225837199287815
10258409,1808,2145,1810,1846,1745225837199287815
10259409,1781,2116,1786,1811,1745225837199287815
10260409,1758,2090,1763,1785,1745225837199287815
10261409,1742,2073,1748,1786,1745225837199287815
10262409,1740,2061,1746,1779,1745225837199287815
10263409,1755,2065,1762,1809,1745225837199287815
10264409,1785,2082,1793,1858,1745225837199287815
10265409,1829,2112,1834,1915,1745225837199287815
10266409,1872,2146,1876,1973,1745225837199287815
10267409,1910,2176,1912,2017,1745225837199287815
10268410,1948,2195,1940,2054,1745225837199287815
10269409,1975,2205,1962,2080,1745225837199287815
10270410,2001,2206,1980,2100,1745225837199287815
10271410,2024,2203,1992,2115,1745225837199287815
10272410,2042,2198,2001,2125,1745225837199287815
10273410,2057,2193,2007,2132,1745225837199287815
10274410,2065,2188,2013,2132,1745225837199287815
10275410,2062,2179,2012,2117,1745225837199287815
10276410,2048,2163,2000,2086,1745225837199287815
10277410,2018,2139,1978,2042,1745225837199287815
10278410,1987,2109,1949,1994,1745225837199287815
10279410,1954,2081,1921,1952,1745225837199287815
10280410,1928,2059,1899,1923,1745225837199287815
10281410,1908,2048,1884,1902,1745225837199287815
10282411,1902,2048,1881,1906,1745225837199287815
10283411,1913,2058,1892,1932,1745225837199287815
10284411,1944,2080,1920,1979,1745225837199287815
10285411,1985,2108,1958,2036,1745225837199287815
10286411,2030,2138,1998,2093,1745225837199287815
10287411,2073,2160,2034,2137,1745225837199287815
10288411,2112,2177,2061,2169,1745225837199287815
10289411,2141,2182,2080,2189,1745225837199287815
10290411,2165,2180,2094,2204,1745225837260703400
10291411,2184,2172,2105,2213,1745225837260703400
10292411,2197,2163,2113,2218,1745225837260703400
10293411,2213,2150,2117,2219,1745225837260703400
10294412,2224,2142,2118,2215,1745225837260703400
10295412,2222,2133,2114,2201,1745225837260703400
10296412,2202,2125,2102,2173,1745225837260703400
10297412,2165,2113,2078,2132,1745225837260703400
10298412,2122,2097,2049,2084,1745225837260703400
10299412,2081,2081,2016,2036,1745225837260703400
10300412,2044,2070,1989,1999,1745225837260703400
10301412,2021,2062,1967,1973,1745225837260703400
10302412,2015,2058,1956,1967,1745225837260703400
10303412,2025,2065,1961,1986,1745225837260703400
10304412,2051,2095,1988,2026,1745225837260703400
10305412,2085,2141,2026,2076,1745225837260703400
10306413,2121,2188,2067,2124,1745225837260703400
10307413,2154,2229,2100,2161,1745225837260703400
10308413,2186,2261,2124,2187,1745225837260703400
10309413,2211,2282,2140,2203,1745225837260703400
10310413,2229,2292,2147,2209,1745225837260703400
10311414,2248,2288,2149,2209,1745225837260703400
10312413,2263,2273,2149,2209,1745225837260703400
10313413,2289,2274,2148,2219,1745225837260703400
10314413,2281,2237,2147,2198,1745225837260703400
10315413,2273,2213,2142,2188,1745225837260703400
10316413,2252,2178,2130,2152,1745225837260703400
10317413,2216,2133,2109,2117,1745225837260703400
10318414,2173,2084,2081,2089,1745225837260703400
10319414,2129,2035,2053,2035,1745225837260703400
10320414,2090,1997,2028,2006,1745225837260703400
10321414,2060,1969,2011,1990,1745225837260703400
10322414,2049,1957,2004,1992,1745225837260703400
10323414,2051,1960,2011,2012,1745225837260703400
10324414,2075,1978,2032,2053,1745225837260703400
10325414,2112,2013,2066,2100,1745225837260703400
10326414,2146,2061,2099,2144,1745225837260703400
10327414,2178,2109,2129,2182,1745225837260703400
10328414,2204,2152,2153,2206,1745225837260703400
10329414,2226,2186,2168,2221,1745225837260703400
10330415,2243,2206,2178,2228,1745225837260703400
10331415,2258,2216,2182,2231,1745225837260703400
10332415,2271,2204,2187,2230,1745225837260703400
10333415,2281,2188,2189,2228,1745225837260703400
10334415,2283,2166,2188,2221,1745225837260703400
10335415,2274,2141,2181,2202,1745225837260703400
10336415,2252,2109,2163,2169,1745225837260703400
10337415,2215,2073,2133,2123,1745225837260703400
10338415,2170,2035,2097,2072,1745225837260703400
10339415,2126,2005,2060,2027,1745225837260703400
10340415,2086,1982,2028,1993,1745225837260703400
10341415,2057,1971,2008,1970,1745225837260703400
10342416,2035,1977,1999,1966,1745225837260703400
10343416,2035,2000,2005,1985,1745225837260703400
10344416,2054,2048,2024,2021,1745225837260703400
10345416,2086,2091,2054,2070,1745225837260703400
10346416,2122,2137,2085,2115,1745225837260703400
10347416,2157,2174,2108,2153,1745225837260703400
10348416,2188,2200,2126,2180,1745225837315076028
10349416,2215,2213,2131,2197,1745225837315076028
10350416,2235,2218,2129,2209,1745225837315076028
10351416,2251,2214,2123,2213,1745225837315076028
10352416,2261,2208,2120,2214,1745225837315076028
10353416,2267,2198,2122,2213,1745225837315076028
10354417,2265,2187,2129,2208,1745225837315076028
10355417,2252,2176,2133,2190,1745225837315076028
10356417,2225,2154,2129,2159,1745225837315076028
10357417,2187,2122,2114,2117,1745225837315076028
10358417,2142,2081,2090,2070,1745225837315076028
10359417,2097,2034,2066,2027,1745225837315076028
10360417,2057,1996,2041,1995,1745225837315076028
10361417,2024,1963,2024,1977,1745225837315076028
10362417,2010,1944,2014,1976,1745225837315076028
10363417,2014,1937,2018,1994,1745225837315076028
10364417,2038,1946,2035,2030,1745225837315076028
10365417,2077,1970,2062,2076,1745225837315076028
10366418,2120,2002,2089,2115,1745225837315076028
10367418,2157,2036,2110,2146,1745225837315076028
10368418,2185,2076,2123,2166,1745225837315076028
10369418,2204,2108,2125,2179,1745225837315076028
10370418,2217,2134,2150,2186,1745225837315076028
10371419,2225,2152,2138,2188,1745225837315076028
10372418,2228,2162,2136,2184,1745225837315076028
10373418,2227,2162,2125,2181,1745225837315076028
10374419,2226,2157,2106,2172,1745225837315076028
10375418,2214,2148,2076,2152,1745225837315076028
10376418,2190,2106,2035,2117,1745225837315076028
10377418,2155,2090,1990,2072,1745225837315076028
10378419,2113,2052,1947,2022,1745225837315076028
10379419,2070,2013,1912,1980,1745225837315076028
10380419,2027,1984,1891,1950,1745225837315076028
10381419,1990,1963,1889,1935,1745225837315076028
10382419,1966,1953,1906,1940,1745225837315076028
10383419,1970,1956,1944,1970,1745225837315076028
10384419,1969,1973,1994,2017,1745225837315076028
10385419,1986,1998,2052,2074,1745225837315076028
10386419,2014,2025,2104,2125,1745225837315076028
10387419,2049,2041,2144,2165,1745225837315076028
10388419,2082,2049,2171,2193,1745225837315076028
10389419,2114,2049,2187,2208,1745225837315076028
10390420,2139,2043,2196,2214,1745225837315076028
10391420,2151,2042,2196,2214,1745225837315076028
10392420,2160,2049,2193,2211,1745225837315076028
10393420,2163,2060,2186,2204,1745225837315076028
10394420,2161,2077,2177,2191,1745225837315076028
10395420,2149,2090,2161,2164,1745225837315076028
10396420,2125,2097,2135,2123,1745225837315076028
10397420,2091,2093,2097,2070,1745225837315076028
10398420,2049,2084,2052,2012,1745225837315076028
10399420,2005,2072,2003,1960,1745225837315076028
10400420,1966,2061,1957,1917,1745225837315076028
10401420,1936,2053,1917,1889,1745225837315076028
10402421,1918,2051,1889,1882,1745225837315076028
10403421,1917,2056,1880,1901,1745225837315076028
10404421,1933,2075,1890,1941,1745225837315076028
10405421,1962,2100,1918,1989,1745225837315076028
10406421,1997,2124,1957,2035,1745225837375588601
10407421,2033,2140,2003,2077,1745225837375588601
10408421,2066,2148,2051,2110,1745225837375588601
10409421,2089,2150,2090,2136,1745225837375588601
10410421,2102,2148,2121,2153,1745225837375588601
10411421,2109,2140,2136,2164,1745225837375588601
10412421,2114,2128,2146,2170,1745225837375588601
10413421,2116,2112,2148,2171,1745225837375588601
10414422,2116,2093,2147,2167,1745225837375588601
10415422,2104,2073,2137,2150,1745225837375588601
10416422,2079,2043,2114,2117,1745225837375588601
10417422,2041,2009,2078,2069,1745225837375588601
10418422,2002,1969,2034,2012,1745225837375588601
10419422,1964,1932,1988,1958,1745225837375588601
10420422,1930,1902,1944,1913,1745225837375588601
10421422,1905,1882,1899,1881,1745225837375588601
10422422,1896,1878,1860,1867,1745225837375588601
10423422,1902,1893,1823,1875,1745225837375588601
10424422,1922,1930,1818,1903,1745225837375588601
10425422,1953,1977,1818,1942,1745225837375588601
10426423,1988,2028,1827,1981,1745225837375588601
10427423,2020,2077,1842,2014,1745225837375588601
10428423,2050,2115,1864,2041,1745225837375588601
10429424,2073,2142,1894,2065,1745225837375588601
10430423,2084,2160,1933,2063,1745225837375588601
10431423,2093,2171,1976,2091,1745225837375588601
10432423,2096,2174,2014,2097,1745225837375588601
10433423,2095,2173,2052,2102,1745225837375588601
10434423,2088,2169,2083,2096,1745225837375588601
10435423,2072,2160,2105,2089,1745225837375588601
10436423,2041,2142,2109,2058,1745225837375588601
10437423,2003,2112,2097,2010,1745225837375588601
10438424,1960,2075,2070,1960,1745225837375588601
10439424,1915,2035,2037,1914,1745225837375588601
10440424,1875,2000,2009,1881,1745225837375588601
10441424,1844,1970,1987,1860,1745225837375588601
10442424,1827,1949,1978,1861,1745225837375588601
10443424,1827,1939,1985,1885,1745225837375588601
10444424,1848,1942,2008,1931,1745225837375588601
10445424,1879,1956,2042,1986,1745225837375588601
10446424,1917,1972,2078,2040,1745225837375588601
10447424,1953,1987,2106,2085,1745225837375588601
10448424,1983,1997,2125,2116,1745225837375588601
10449424,2009,2005,2131,2132,1745225837375588601
10450425,2028,2012,2123,2137,1745225837375588601
10451425,2048,2017,2104,2133,1745225837375588601
10452425,2059,2021,2080,2124,1745225837375588601
10453425,2067,2028,2052,2110,1745225837375588601
10454425,2070,2038,2027,2094,1745225837375588601
10455425,2066,2050,2009,2068,1745225837375588601
10456425,2043,2058,1991,2028,1745225837375588601
10457425,2009,2060,1972,1980,1745225837375588601
10458425,1965,2059,1952,1930,1745225837375588601
10459425,1921,2060,1931,1886,1745225837375588601
10460425,1881,2064,1913,1859,1745225837375588601
10461425,1851,2070,1904,1844,1745225837375588601
10462426,1842,2080,1906,1856,1745225837375588601
10463426,1857,2095,1926,1896,1745225837375588601
10464426,1891,2120,1964,1960,1745225837445575045
10465426,1951,2152,2018,2036,1745225837445575045
10466426,2013,2187,2083,2116,1745225837445575045
10467426,2078,2221,2142,2188,1745225837445575045
10468426,2140,2241,2189,2250,1745225837445575045
10469426,2200,2259,2224,2297,1745225837445575045
10470426,2258,2269,2251,2334,1745225837445575045
10471426,2312,2276,2276,2366,1745225837445575045
10472426,2361,2281,2302,2396,1745225837445575045
10473426,2404,2286,2334,2425,1745225837445575045
10474427,2443,2293,2372,2451,1745225837445575045
10475427,2473,2297,2408,2466,1745225837445575045
10476427,2490,2291,2429,2464,1745225837445575045
10477427,2497,2266,2428,2446,1745225837445575045
10478427,2498,2246,2406,2419,1745225837445575045
10479427,2497,2219,2376,2396,1745225837445575045
10480427,2496,2196,2350,2382,1745225837445575045
10481427,2503,2178,2332,2380,1745225837445575045
10482427,2524,2169,2328,2392,1745225837445575045
10483427,2559,2170,2345,2424,1745225837445575045
10484427,2605,2182,2387,2472,1745225837445575045
10485427,2666,2208,2448,2528,1745225837445575045
10486428,2720,2238,2514,2574,1745225837445575045
10487428,2762,2270,2572,2624,1745225837445575045
10488428,2799,2299,2630,2669,1745225837445575045
10489428,2829,2320,2686,2701,1745225837445575045
10490428,2854,2337,2726,2728,1745225837445575045
10491428,2881,2323,2748,2746,1745225837445575045
10492428,2905,2344,2745,2757,1745225837445575045
10493428,2927,2345,2724,2768,1745225837445575045
10494428,2952,2348,2698,2781,1745225837445575045
10495428,2972,2348,2673,2795,1745225837445575045
10496428,2987,2361,2657,2805,1745225837445575045
10497428,3004,2370,2652,2814,1745225837445575045
10498429,3026,2382,2676,2830,1745225837445575045
10499429,3056,2398,2737,2852,1745225837445575045
10500429,3096,2422,2815,2897,1745225837445575045
10501429,3148,2450,2896,2963,1745225837445575045
10502429,3218,2483,2984,3040,1745225837445575045
10503429,3310,2525,3080,3140,1745225837445575045
10504429,3427,2569,3198,3260,1745225837445575045
10505429,3565,2629,3335,3395,1745225837445575045
10506429,3699,2691,3484,3536,1745225837445575045
10507429,3806,2750,3624,3665,1745225837445575045
10508429,3884,2803,3755,3785,1745225837445575045
10509429,3939,2851,3849,3869,1745225837445575045
10510430,3978,2892,3916,3929,1745225837445575045
10511430,4006,2930,3962,3973,1745225837445575045
10512430,4024,2964,3996,4002,1745225837445575045
10513430,4037,2998,4018,4024,1745225837445575045
10514430,4045,3036,4034,4038,1745225837445575045
10515430,4052,3080,4046,4048,1745225837445575045
10516430,4057,3125,4054,4056,1745225837445575045
10517430,4060,3170,4060,4060,1745225837445575045
10518430,4063,3212,4064,4064,1745225837445575045
10519430,4064,3252,4066,4067,1745225837445575045
10520430,4066,3296,4068,4070,1745225837445575045
10521430,4066,3340,4070,4072,1745225837445575045
10522431,4066,3388,4072,4072,1745225837490729788
10523431,4068,3443,4077,4073,1745225837490729788
10524431,4068,3505,4074,4074,1745225837490729788
10525431,4068,3568,4074,4074,1745225837490729788
10526431,4068,3617,4074,4074,1745225837490729788
10527431,4075,3662,4074,4074,1745225837490729788
10528431,4069,3694,4075,4074,1745225837490729788
10529431,4069,3713,4075,4074,1745225837490729788
10530431,4069,3720,4075,4075,1745225837490729788
10531431,4069,3720,4074,4075,1745225837490729788
10532431,4068,3714,4075,4076,1745225837490729788
10533431,4069,3708,4075,4076,1745225837490729788
10534432,4069,3699,4075,4076,1745225837490729788
10535432,4069,3685,4075,4075,1745225837490729788
10536432,4069,3661,4076,4075,1745225837490729788
10537432,4070,3632,4076,4075,1745225837490729788
10538432,4070,3598,4075,4076,1745225837490729788
10539432,4069,3576,4075,4076,1745225837490729788
10540432,4070,3544,4076,4076,1745225837490729788
10541432,4070,3508,4076,4075,1745225837490729788
10542432,4070,3470,4076,4076,1745225837490729788
10543432,4070,3433,4076,4076,1745225837490729788
10544432,4069,3401,4076,4076,1745225837490729788
10545432,4069,3375,4077,4075,1745225837490729788
10546433,4070,3342,4074,4066,1745225837490729788
10547433,4069,3308,4076,4075,1745225837490729788
10548433,4072,3268,4075,4065,1745225837490729788
10549433,4095,3205,4067,4075,1745225837490729788
10550433,4090,3150,4071,4076,1745225837490729788
10551433,4061,3073,4078,4076,1745225837490729788
10552433,4070,2984,4076,4077,1745225837490729788
10553433,4072,2893,4078,4077,1745225837490729788
10554433,4072,2802,4078,4078,1745225837490729788
10555433,4073,2710,4078,4078,1745225837490729788
10556433,4073,2612,4079,4078,1745225837490729788
10557433,4072,2516,4080,4078,1745225837490729788
10558434,4072,2409,4080,4077,1745225837490729788
10559434,4072,2301,4026,4078,1745225837490729788
10560434,4073,2211,3877,4077,1745225837490729788
10561434,4072,2098,3692,4079,1745225837490729788
10562434,4072,2006,3506,4034,1745225837490729788
10563434,4073,1932,3328,3918,1745225837490729788
10564434,4073,1873,3179,3771,1745225837490729788
10565434,4073,1840,3039,3605,1745225837490729788
10566434,4073,1787,2929,3448,1745225837490729788
10567434,4073,1742,2794,3269,1745225837490729788
10568434,4070,1690,2637,3077,1745225837490729788
10569434,3965,1630,2470,2880,1745225837490729788
10570435,3763,1562,2282,2678,1745225837490729788
10571435,3513,1496,2087,2482,1745225837490729788
10572435,3232,1416,1893,2274,1745225837490729788
10573435,2944,1331,1704,2062,1745225837490729788
10574435,2652,1242,1513,1837,1745225837490729788
10575435,2359,1141,1288,1593,1745225837490729788
10576435,2043,1029,1030,1329,1745225837490729788
10577435,1710,899,811,1050,1745225837490729788
10578435,1370,754,644,829,1745225837490729788
10579435,1070,604,513,662,1745225837490729788
10580435,848,489,419,530,1745225837550981478
10581435,675,393,336,435,1745225837550981478
10582436,539,313,271,350,1745225837550981478
10583436,443,253,220,284,1745225837550981478
10584436,356,204,179,232,1745225837550981478
10585436,288,168,147,189,1745225837550981478
10586436,234,138,122,155,1745225837550981478
10587436,192,114,102,128,1745225837550981478
10588436,160,96,88,107,1745225837550981478
10589436,132,82,75,91,1745225837550981478
10590436,112,72,65,77,1745225837550981478
10591436,95,62,57,68,1745225837550981478
10592436,82,56,51,60,1745225837550981478
10593436,72,49,46,53,1745225837550981478
10594437,64,45,42,47,1745225837550981478
10595437,57,41,40,43,1745225837550981478
10596437,51,40,37,41,1745225837550981478
10597437,48,37,35,37,1745225837550981478
10598437,44,36,33,35,1745225837550981478
10599437,42,34,33,34,1745225837550981478
10600437,40,33,31,33,1745225837550981478
10601437,37,32,30,31,1745225837550981478
10602437,36,32,30,30,1745225837550981478
10603437,34,30,29,29,1745225837550981478
10604437,34,32,28,30,1745225837550981478
10605438,33,30,27,27,1745225837550981478
10606438,32,28,28,28,1745225837550981478
10607438,32,29,27,28,1745225837550981478
10608438,32,29,27,27,1745225837550981478
10609438,30,30,27,27,1745225837550981478
10610438,30,28,25,28,1745225837550981478
10611438,30,29,27,27,1745225837550981478
10612438,29,28,26,26,1745225837550981478
10613438,30,28,27,26,1745225837550981478
10614438,29,28,26,27,1745225837550981478
10615438,29,28,26,27,1745225837550981478
10616438,28,28,26,26,1745225837550981478
10617438,28,28,26,26,1745225837550981478
10618439,28,28,26,26,1745225837550981478
10619439,28,27,26,18,1745225837550981478
10620439,27,27,26,26,1745225837550981478
10621439,26,28,26,26,1745225837550981478
10622439,26,53,25,26,1745225837550981478
10623439,26,131,26,26,1745225837550981478
10624439,26,248,26,25,1745225837550981478
10625439,26,390,26,25,1745225837550981478
10626439,26,536,26,25,1745225837550981478
10627439,25,691,26,26,1745225837550981478
10628439,25,844,26,25,1745225837550981478
10629439,26,997,26,26,1745225837550981478
10630440,25,1146,26,25,1745225837550981478
10631440,25,1296,26,25,1745225837550981478
10632440,26,1441,26,25,1745225837550981478
10633440,25,1571,26,26,1745225837550981478
10634440,25,1702,25,26,1745225837550981478
10635440,27,1820,26,26,1745225837550981478
10636440,25,1923,26,25,1745225837550981478
10637440,26,2010,26,24,1745225837550981478
10638440,25,2088,26,25,1745225837608349756
10639440,25,2160,25,25,1745225837608349756
10640440,25,2233,25,19,1745225837608349756
10641440,25,2308,29,25,1745225837608349756
10642441,25,2387,93,25,1745225837608349756
10643441,25,2473,228,30,1745225837608349756
10644441,25,2559,408,25,1745225837608349756
10645441,26,2658,602,80,1745225837608349756
10646441,25,2760,805,218,1745225837608349756
10647441,25,2854,1004,404,1745225837608349756
10648441,25,2945,1198,604,1745225837608349756
10649441,26,3027,1386,822,1745225837608349756
10650441,26,3103,1569,1046,1745225837608349756
10651441,30,3171,1768,1274,1745225837608349756
10652441,119,3235,1975,1501,1745225837608349756
10653441,306,3296,2193,1723,1745225837608349756
10654442,549,3353,2412,1954,1745225837608349756
10655442,829,3406,2620,2180,1745225837608349756
10656442,1116,3453,2828,2400,1745225837608349756
10657442,1400,3491,3023,2602,1745225837608349756
10658442,1675,3524,3211,2806,1745225837608349756
10659442,1962,3556,3394,3013,1745225837608349756
10660442,2259,3584,3578,3229,1745225837608349756
10661442,2559,3630,3713,3448,1745225837608349756
10662442,2869,3682,3815,3610,1745225837608349756
10663443,3184,3741,3889,3745,1745225837608349756
10664442,3426,3816,3943,3841,1745225837608349756
10665442,3599,3886,3980,3912,1745225837608349756
10666443,3732,3939,4006,3946,1745225837608349756
10667443,3829,3976,4025,3989,1745225837608349756
10668443,3898,4001,4040,4012,1745225837608349756
10669443,3948,4019,4050,4030,1745225837608349756
10670443,3983,4034,4056,4037,1745225837608349756
10671443,4008,4042,4061,4050,1745225837608349756
10672443,4026,4049,4064,4057,1745225837608349756
10673443,4039,4054,4066,4061,1745225837608349756
10674443,4049,4058,4068,4065,1745225837608349756
10675443,4057,4069,4070,4062,1745225837608349756
10676443,4060,4062,4070,4068,1745225837608349756
10677443,4065,4064,4072,4070,1745225837608349756
10678444,4066,4065,4072,4070,1745225837608349756
10679444,4068,4068,4073,4073,1745225837608349756
10680444,4070,4068,4073,4072,1745225837608349756
10681444,4070,4044,4073,4073,1745225837608349756
10682444,4072,3976,4074,4074,1745225837608349756
10683444,4075,3883,4074,4073,1745225837608349756
10684444,4073,3781,4074,4073,1745225837608349756
10685444,4073,3680,4074,4074,1745225837608349756
10686444,4063,3583,4074,4075,1745225837608349756
10687444,4073,3476,4074,4074,1745225837608349756
10688444,4074,3354,4074,4075,1745225837608349756
10689444,4074,3225,4075,4075,1745225837608349756
10690445,4075,3091,4075,4075,1745225837608349756
10691445,4075,2958,4076,4075,1745225837608349756
10692445,4076,2829,4076,4075,1745225837608349756
10693445,4076,2707,4076,4078,1745225837608349756
10694445,4077,2589,4077,4076,1745225837608349756
10695445,4078,2483,4050,4076,1745225837608349756
10696445,4077,2368,3925,4076,1745225837667924055
10697445,4077,2251,3734,4038,1745225837667924055
10698445,4069,2137,3526,3888,1745225837667924055
10699445,4077,2027,3310,3677,1745225837667924055
10700445,4077,1933,3105,3460,1745225837667924055
10701445,4008,1848,2920,3242,1745225837667924055
10702446,3836,1774,2755,3051,1745225837667924055
10703446,3612,1716,2614,2894,1745225837667924055
10704446,3393,1678,2511,2772,1745225837667924055
10705446,3178,1656,2420,2672,1745225837667924055
10706446,2979,1645,2344,2586,1745225837667924055
10707446,2797,1641,2273,2512,1745225837667924055
10708446,2627,1637,2203,2429,1745225837667924055
10709446,2476,1635,2132,2345,1745225837667924055
10710446,2326,1634,2060,2262,1745225837667924055
10711446,2187,1634,1990,2176,1745225837667924055
10712446,2055,1636,1925,2093,1745225837667924055
10713446,1929,1641,1865,2013,1745225837667924055
10714447,1810,1645,1811,1937,1745225837667924055
10715447,1694,1650,1757,1859,1745225837667924055
10716447,1578,1651,1700,1777,1745225837667924055
10717447,1467,1644,1641,1688,1745225837667924055
10718447,1350,1632,1578,1598,1745225837667924055
10719447,1240,1619,1526,1522,1745225837667924055
10720447,1136,1611,1474,1450,1745225837667924055
10721448,1044,1608,1430,1390,1745225837667924055
10722448,967,1611,1397,1352,1745225837667924055
10723447,911,1621,1378,1333,1745225837667924055
10724447,874,1645,1379,1342,1745225837667924055
10725447,858,1678,1396,1370,1745225837667924055
10726448,852,1715,1423,1405,1745225837667924055
10727448,853,1748,1450,1440,1745225837667924055
10728448,863,1778,1488,1469,1745225837667924055
10729448,864,1801,1498,1495,1745225837667924055
10730449,882,1820,1518,1517,1745225837667924055
10731448,893,1834,1535,1535,1745225837667924055
10732448,909,1845,1548,1545,1745225837667924055
10733448,926,1853,1566,1562,1745225837667924055
10734448,947,1862,1583,1577,1745225837667924055
10735448,959,1870,1596,1583,1745225837667924055
10736448,959,1874,1606,1577,1745225837667924055
10737448,946,1870,1609,1556,1745225837667924055
10738449,924,1859,1602,1535,1745225837667924055
10739449,901,1846,1593,1508,1745225837667924055
10740449,882,1834,1582,1488,1745225837667924055
10741449,871,1826,1575,1476,1745225837667924055
10742449,873,1824,1573,1482,1745225837667924055
10743449,892,1829,1584,1504,1745225837667924055
10744449,929,1845,1605,1537,1745225837667924055
10745449,977,1868,1639,1588,1745225837667924055
10746449,1026,1893,1672,1637,1745225837667924055
10747449,1073,1913,1700,1677,1745225837667924055
10748449,1116,1923,1718,1707,1745225837667924055
10749449,1155,1924,1729,1724,1745225837667924055
10750450,1190,1918,1733,1734,1745225837667924055
10751450,1221,1908,1734,1741,1745225837667924055
10752450,1249,1897,1735,1745,1745225837667924055
10753450,1275,1889,1737,1748,1745225837667924055
10754450,1296,1891,1745,1755,1745225837724366144
10755450,1308,1902,1760,1754,1745225837724366144
10756450,1306,1914,1771,1747,1745225837724366144
10757450,1296,1920,1777,1729,1745225837724366144
10758450,1284,1923,1777,1709,1745225837724366144
10759450,1275,1926,1778,1694,1745225837724366144
10760450,1275,1934,1781,1688,1745225837724366144
10761450,1286,1950,1792,1695,1745225837724366144
10762451,1317,1978,1812,1723,1745225837724366144
10763451,1368,2017,1848,1777,1745225837724366144
10764451,1436,2072,1902,1853,1745225837724366144
10765451,1520,2133,1976,1952,1745225837724366144
10766451,1608,2201,2068,2065,1745225837724366144
10767451,1714,2268,2172,2185,1745225837724366144
10768451,1827,2336,2293,2312,1745225837724366144
10769451,1953,2404,2428,2450,1745225837724366144
10770451,2096,2478,2568,2593,1745225837724366144
10771451,2254,2555,2734,2760,1745225837724366144
10772451,2436,2627,2917,2944,1745225837724366144
10773451,2637,2716,3121,3150,1745225837724366144
10774452,2877,2819,3352,3384,1745225837724366144
10775452,3146,2940,3565,3583,1745225837724366144
10776452,3401,3080,3708,3723,1745225837724366144
10777452,3583,3230,3819,3827,1745225837724366144
10778452,3721,3397,3893,3900,1745225837724366144
10779452,3819,3578,3947,3951,1745225837724366144
10780452,3892,3716,3989,3988,1745225837724366144
10781452,3944,3818,4021,4015,1745225837724366144
10782452,3962,3889,4058,4033,1745225837724366144
10783452,4000,3942,4044,4041,1745225837724366144
10784452,4021,3980,4053,4055,1745225837724366144
10785452,4034,4005,4061,4061,1745225837724366144
10786453,4043,4023,4065,4065,1745225837724366144
10787453,4050,4036,4095,4067,1745225837724366144
10788453,4052,4048,4068,4070,1745225837724366144
10789453,4066,4052,4072,4072,1745225837724366144
10790453,4060,4057,4073,4074,1745225837724366144
10791453,4061,4060,4074,4074,1745225837724366144
10792453,4062,4062,4075,4076,1745225837724366144
10793453,4065,4065,4076,4074,1745225837724366144
10794453,4064,4066,4076,4077,1745225837724366144
10795453,4065,4066,4076,4077,1745225837724366144
10796453,4066,4067,4076,4077,1745225837724366144
10797453,4066,4067,4076,4078,1745225837724366144
10798454,4066,4068,4077,4077,1745225837724366144
10799454,4066,4068,4076,4078,1745225837724366144
10800454,4066,4068,4082,4078,1745225837724366144
10801454,4067,4068,4076,4078,1745225837724366144
10802454,4066,4068,4076,4078,1745225837724366144
10803454,4068,4069,4076,4078,1745225837724366144
10804454,4067,4068,4076,4079,1745225837724366144
10805454,4067,4068,4075,4078,1745225837724366144
10806454,4068,4068,4075,4078,1745225837724366144
10807454,4068,4069,4075,4079,1745225837724366144
10808454,4068,4069,4074,4064,1745225837724366144
10809454,4069,4072,4075,4079,1745225837724366144
10810455,4069,4075,4075,4078,1745225837724366144
10811455,4069,4068,4075,4078,1745225837724366144
10812455,4069,4070,4075,4080,1745225837782460509
10813455,4068,4061,4075,4080,1745225837782460509
10814455,4068,4071,4075,4080,1745225837782460509
10815455,4068,4070,4074,4079,1745225837782460509
10816455,4069,4070,4075,4080,1745225837782460509
10817455,4068,4069,4075,4080,1745225837782460509
10818455,4069,4069,4076,4081,1745225837782460509
10819455,4069,4070,4075,4080,1745225837782460509
10820455,4069,4070,4075,4080,1745225837782460509
10821455,4073,4070,4075,4080,1745225837782460509
10822456,4068,4070,4075,4080,1745225837782460509
10823456,4070,4070,4077,4080,1745225837782460509
10824456,4070,4070,4075,4080,1745225837782460509
10825456,4069,4070,4076,4079,1745225837782460509
10826456,4069,4070,4075,4081,1745225837782460509
10827456,4069,4070,4076,4080,1745225837782460509
10828456,4069,4070,4075,4080,1745225837782460509
10829456,4069,4069,4076,4080,1745225837782460509
10830456,4070,4056,4076,4081,1745225837782460509
10831456,4069,3985,4075,4078,1745225837782460509
10832456,4069,3876,4075,4080,1745225837782460509
10833456,4069,3744,4075,4080,1745225837782460509
10834457,4069,3600,4075,4081,1745225837782460509
10835457,4069,3460,4076,4079,1745225837782460509
10836457,4071,3304,4075,4080,1745225837782460509
10837457,4070,3145,4075,4080,1745225837782460509
10838457,4072,2983,4057,4080,1745225837782460509
10839457,4070,2804,4095,4081,1745225837782460509
10840457,4068,2660,4075,4081,1745225837782460509
10841457,4069,2509,4075,4082,1745225837782460509
10842457,4070,2349,4075,4081,1745225837782460509
10843457,4069,2196,4075,4081,1745225837782460509
10844457,4070,2049,4075,4083,1745225837782460509
10845457,4070,1905,4075,4083,1745225837782460509
10846458,4095,1765,4074,4081,1745225837782460509
10847458,4069,1620,4075,4081,1745225837782460509
10848458,4069,1477,4075,4081,1745225837782460509
10849458,4069,1320,4075,4082,1745225837782460509
10850458,4069,1158,4075,4082,1745225837782460509
10851458,4069,990,4075,4081,1745225837782460509
10852458,4068,817,4036,4082,1745225837782460509
10853458,4068,653,3816,4082,1745225837782460509
10854458,4068,521,3464,4072,1745225837782460509
10855458,4064,427,3057,4045,1745225837782460509
10856458,4068,345,2609,3793,1745225837782460509
10857458,4068,278,2156,3376,1745225837782460509
10858459,4068,227,1685,2860,1745225837782460509
10859459,4057,186,1302,2317,1745225837782460509
10860459,3814,154,1019,1776,1745225837782460509
10861459,3344,130,805,1372,1745225837782460509
10862459,2730,109,641,1074,1745225837782460509
10863459,2084,93,513,850,1745225837782460509
10864459,1581,81,420,677,1745225837782460509
10865459,1235,70,339,543,1745225837782460509
10866459,971,64,274,446,1745225837782460509
10867459,771,58,222,361,1745225837782460509
10868459,616,52,182,292,1745225837782460509
10869459,504,49,151,237,1745225837782460509
10870460,408,45,125,193,1745225837842967404
10871460,331,42,106,160,1745225837842967404
10872460,268,41,91,132,1745225837842967404
10873460,219,40,78,110,1745225837842967404
10874460,181,39,69,93,1745225837842967404
10875460,150,37,61,80,1745225837842967404
10876460,128,37,56,69,1745225837842967404
10877460,108,35,51,60,1745225837842967404
10878460,93,35,46,54,1745225837842967404
10879460,82,34,43,49,1745225837842967404
10880460,72,34,41,45,1745225837842967404
10881460,64,34,40,42,1745225837842967404
10882461,59,32,37,40,1745225837842967404
10883461,54,32,36,36,1745225837842967404
10884461,51,33,35,35,1745225837842967404
10885461,46,33,34,33,1745225837842967404
10886461,44,33,33,33,1745225837842967404
10887461,43,32,33,32,1745225837842967404
10888461,42,32,33,30,1745225837842967404
10889461,40,32,33,30,1745225837842967404
10890461,40,32,32,29,1745225837842967404
10891461,37,32,30,29,1745225837842967404
10892461,36,32,30,28,1745225837842967404
10893461,36,32,30,28,1745225837842967404
10894462,36,32,24,27,1745225837842967404
10895462,36,31,30,28,1745225837842967404
10896462,35,32,30,27,1745225837842967404
10897463,34,31,30,27,1745225837842967404
10898462,33,31,26,27,1745225837842967404
10899462,34,30,29,27,1745225837842967404
10900462,33,30,30,27,1745225837842967404
10901462,34,30,27,26,1745225837842967404
10902462,34,30,29,26,1745225837842967404
10903462,34,30,29,26,1745225837842967404
10904462,34,31,29,27,1745225837842967404
10905462,34,31,29,26,1745225837842967404
10906463,34,30,29,26,1745225837842967404
10907463,34,30,29,26,1745225837842967404
10908463,33,30,29,26,1745225837842967404
10909463,33,30,28,26,1745225837842967404
10910463,33,31,28,27,1745225837842967404
10911463,33,29,29,26,1745225837842967404
10912463,33,30,29,26,1745225837842967404
10913463,33,30,29,26,1745225837842967404
10914463,33,30,29,26,1745225837842967404
10915463,32,30,28,26,1745225837842967404
10916463,32,29,28,26,1745225837842967404
10917463,33,30,29,24,1745225837842967404
10918464,33,29,28,25,1745225837842967404
10919464,33,30,28,25,1745225837842967404
10920464,33,31,28,26,1745225837842967404
10921464,32,31,28,26,1745225837842967404
10922464,32,58,28,26,1745225837842967404
10923464,32,141,29,25,1745225837842967404
10924464,33,260,29,25,1745225837842967404
10925464,33,404,29,26,1745225837842967404
10926464,33,551,29,26,1745225837842967404
10927464,32,708,29,26,1745225837842967404
10928464,32,863,28,25,1745225837899425118
10929464,33,1020,29,26,1745225837899425118
10930465,33,1179,28,26,1745225837899425118
10931465,33,1340,29,25,1745225837899425118
10932465,33,1505,29,26,1745225837899425118
10933465,33,1669,28,26,1745225837899425118
10934465,33,1845,28,26,1745225837899425118
10935465,33,2027,29,28,1745225837899425118
10936465,34,2212,28,26,1745225837899425118
10937465,33,2395,29,25,1745225837899425118
10938465,34,2570,29,25,1745225837899425118
10939465,33,2756,28,26,1745225837899425118
10940465,34,2951,28,26,1745225837899425118
10941465,34,3156,28,19,1745225837899425118
10942466,34,3374,28,26,1745225837899425118
10943466,35,3565,29,25,1745225837899425118
10944466,35,3698,28,25,1745225837899425118
10945466,35,3802,27,26,1745225837899425118
10946466,34,3875,28,26,1745225837899425118
10947466,35,3930,125,26,1745225837899425118
10948466,35,3968,396,50,1745225837899425118
10949466,36,3996,777,252,1745225837899425118
10950466,35,4015,1236,602,1745225837899425118
10951466,35,4029,1722,1065,1745225837899425118
10952466,35,4040,2248,1578,1745225837899425118
10953466,131,4047,2705,2138,1745225837899425118
10954467,455,4051,3069,2616,1745225837899425118
10955467,937,4054,3344,2997,1745225837899425118
10956467,1534,4058,3548,3286,1745225837899425118
10957467,2136,4058,3719,3501,1745225837899425118
10958467,2628,4061,3798,3657,1745225837899425118
10959467,2988,4062,3877,3776,1745225837899425118
10960467,3278,4063,3934,3861,1745225837899425118
10961467,3496,4064,3976,3924,1745225837899425118
10962467,3649,4065,4003,3968,1745225837899425118
10963467,3768,4067,4024,4000,1745225837899425118
10964467,3852,4067,4037,4022,1745225837899425118
10965467,3913,4067,4048,4037,1745225837899425118
10966468,3956,4068,4055,4048,1745225837899425118
10967468,3989,4070,4065,4057,1745225837899425118
10968468,4011,4069,4066,4062,1745225837899425118
10969468,4026,4068,4068,4067,1745225837899425118
10970468,4026,4067,4069,4073,1745225837899425118
10971468,4042,4069,4073,4072,1745225837899425118
10972468,4050,4068,4074,4073,1745225837899425118
10973468,4056,4068,4075,4074,1745225837899425118
10974468,4058,4068,4076,4075,1745225837899425118
10975468,4060,4069,4076,4076,1745225837899425118
10976468,4061,4069,4076,4077,1745225837899425118
10977468,4063,4069,4081,4077,1745225837899425118
10978469,4065,4069,4078,4077,1745225837899425118
10979469,4066,4072,4078,4077,1745225837899425118
10980469,4066,4069,4078,4078,1745225837899425118
10981469,4066,4069,4078,4078,1745225837899425118
10982469,4066,4070,4078,4078,1745225837899425118
10983469,4067,4070,4078,4080,1745225837899425118
10984469,4068,4069,4078,4077,1745225837899425118
10985469,4068,4070,4079,4076,1745225837899425118
10986469,4067,4071,4078,4078,1745225837959984043
10987469,4068,4070,4082,4078,1745225837959984043
10988469,4068,4070,4078,4080,1745225837959984043
10989469,4067,4070,4078,4080,1745225837959984043
10990470,4068,4069,4078,4080,1745225837959984043
10991470,4068,4072,4078,4080,1745225837959984043
10992470,4069,4070,4080,4078,1745225837959984043
10993470,4068,4069,4078,4079,1745225837959984043
10994470,4068,4070,4078,4080,1745225837959984043
10995470,4068,4070,4079,4079,1745225837959984043
10996470,4068,4070,4080,4080,1745225837959984043
10997470,4069,4070,4083,4079,1745225837959984043
10998470,4069,4069,4080,4078,1745225837959984043
10999470,4067,4070,4080,4080,1745225837959984043
11000470,4068,4072,4079,4080,1745225837959984043
11001470,4069,4070,4080,4079,1745225837959984043
11002471,4069,4070,4079,4080,1745225837959984043
11003471,4068,4070,4080,4080,1745225837959984043
11004471,4069,4070,4080,4080,1745225837959984043
11005471,4068,4070,4079,4080,1745225837959984043
11006471,4069,4070,4080,4080,1745225837959984043
11007471,4069,4072,4083,4081,1745225837959984043
11008471,4069,4070,4080,4080,1745225837959984043
11009471,4069,4070,4080,4079,1745225837959984043
11010471,4069,4069,4080,4079,1745225837959984043
11011471,4069,4046,4082,4078,1745225837959984043
11012471,4069,3972,4080,4080,1745225837959984043
11013472,4069,3866,4080,4080,1745225837959984043
11014472,4068,3747,4095,4080,1745225837959984043
11015472,4067,3613,4080,4081,1745225837959984043
11016472,4069,3480,4080,4080,1745225837959984043
11017472,4068,3325,4081,4081,1745225837959984043
11018472,4068,3162,4079,4080,1745225837959984043
11019472,4068,2994,4081,4080,1745225837959984043
11020472,4069,2815,4079,4079,1745225837959984043
11021472,4069,2659,4081,4081,1745225837959984043
11022472,4069,2505,4081,4080,1745225837959984043
11023472,4069,2342,4081,4081,1745225837959984043
11024472,4069,2181,4081,4082,1745225837959984043
11025472,4069,2017,4081,4084,1745225837959984043
11026473,4069,1852,4080,4080,1745225837959984043
11027473,4069,1688,4084,4081,1745225837959984043
11028473,4068,1528,4081,4082,1745225837959984043
11029473,4069,1355,4081,4082,1745225837959984043
11030473,4068,1178,4081,4082,1745225837959984043
11031473,4067,1001,4080,4081,1745225837959984043
11032473,4067,825,3995,4081,1745225837959984043
11033473,4068,662,3719,4082,1745225837959984043
11034473,4067,528,3342,4082,1745225837959984043
11035473,4068,432,2907,3995,1745225837959984043
11036473,4068,348,2468,3682,1745225837959984043
11037473,4068,281,2025,3240,1745225837959984043
11038474,4058,228,1594,2737,1745225837959984043
11039474,4010,187,1240,2247,1745225837959984043
11040474,3689,156,971,1769,1745225837959984043
11041474,3197,130,767,1370,1745225837959984043
11042474,2624,110,610,1073,1745225837959984043
11043474,2053,94,497,848,1745225837959984043
11044474,1560,80,399,675,1745225838016782118
11045474,1219,71,321,541,1745225838016782118
11046474,960,63,258,444,1745225838016782118
11047474,763,58,209,358,1745225838016782118
11048474,610,52,171,290,1745225838016782118
11049474,499,48,141,236,1745225838016782118
11050475,403,45,116,192,1745225838016782118
11051475,326,43,98,157,1745225838016782118
11052475,265,41,83,130,1745225838016782118
11053475,217,38,72,109,1745225838016782118
11054475,177,38,62,92,1745225838016782118
11055475,149,36,56,79,1745225838016782118
11056475,126,36,50,68,1745225838016782118
11057475,107,35,46,60,1745225838016782118
11058475,92,35,42,53,1745225838016782118
11059475,81,34,38,48,1745225838016782118
11060475,70,33,36,44,1745225838016782118
11061475,64,33,35,41,1745225838016782118
11062476,59,33,33,38,1745225838016782118
11063476,53,32,32,36,1745225838016782118
11064476,50,32,31,34,1745225838016782118
11065476,47,32,30,33,1745225838016782118
11066476,44,32,29,32,1745225838016782118
11067476,43,32,29,31,1745225838016782118
11068476,41,32,29,29,1745225838016782118
11069476,37,31,28,29,1745225838016782118
11070477,41,32,28,28,1745225838016782118
11071476,37,32,27,29,1745225838016782118
11072476,33,32,27,29,1745225838016782118
11073477,37,32,28,28,1745225838016782118
11074478,36,30,25,28,1745225838016782118
11075477,36,30,26,27,1745225838016782118
11076477,35,31,27,27,1745225838016782118
11077477,35,30,26,27,1745225838016782118
11078477,34,31,26,27,1745225838016782118
11079477,34,31,26,26,1745225838016782118
11080477,34,30,26,26,1745225838016782118
11081477,34,30,26,26,1745225838016782118
11082477,34,30,26,26,1745225838016782118
11083477,34,30,26,27,1745225838016782118
11084477,33,30,26,26,1745225838016782118
11085477,33,31,26,26,1745225838016782118
11086478,34,30,25,26,1745225838016782118
11087478,33,30,25,26,1745225838016782118
11088478,33,30,26,26,1745225838016782118
11089478,33,30,25,26,1745225838016782118
11090478,33,31,26,25,1745225838016782118
11091478,32,30,25,25,1745225838016782118
11092478,33,29,25,25,1745225838016782118
11093478,32,30,26,25,1745225838016782118
11094478,33,31,26,26,1745225838016782118
11095478,32,29,25,26,1745225838016782118
11096478,33,29,25,26,1745225838016782118
11097478,32,30,25,26,1745225838016782118
11098479,32,55,26,25,1745225838016782118
11099479,32,113,25,25,1745225838016782118
11100479,33,197,25,25,1745225838016782118
11101479,33,298,25,25,1745225838016782118
11102479,32,414,25,26,1745225838076775216
11103479,32,533,25,26,1745225838076775216
11104479,32,674,26,25,1745225838076775216
11105479,33,824,26,25,1745225838076775216
11106479,33,981,25,26,1745225838076775216
11107479,33,1142,25,25,1745225838076775216
11108479,32,1306,25,26,1745225838076775216
11109479,33,1474,25,26,1745225838076775216
11110480,33,1637,25,25,1745225838076775216
11111480,33,1812,25,25,1745225838076775216
11112480,34,1994,25,25,1745225838076775216
11113480,33,2186,25,25,1745225838076775216
11114480,34,2380,27,26,1745225838076775216
11115480,34,2566,26,26,1745225838076775216
11116480,34,2757,25,25,1745225838076775216
11117480,34,2940,26,26,1745225838076775216
11118480,34,3123,26,26,1745225838076775216
11119480,34,3309,26,26,1745225838076775216
11120480,35,3502,26,26,1745225838076775216
11121480,34,3650,86,26,1745225838076775216
11122481,36,3765,310,67,1745225838076775216
11123481,35,3850,649,288,1745225838076775216
11124481,36,3912,1075,651,1745225838076775216
11125481,36,3955,1542,1118,1745225838076775216
11126481,36,3988,2049,1630,1745225838076775216
11127481,128,4008,2552,2182,1745225838076775216
11128481,433,4024,2944,2649,1745225838076775216
11129481,885,4034,3250,3019,1745225838076775216
11130482,1449,4042,3480,3305,1745225838076775216
11131482,2048,4045,3661,3520,1745225838076775216
11132481,2549,4052,3764,3668,1745225838076775216
11133481,2934,4056,3853,3785,1745225838076775216
11134482,3239,4059,3918,3868,1745225838076775216
11135482,3465,4061,3963,3928,1745225838076775216
11136482,3626,4064,3996,3970,1745225838076775216
11137482,3750,4049,4009,3992,1745225838076775216
11138482,3839,4065,4036,4022,1745225838076775216
11139482,3905,4065,4048,4038,1745225838076775216
11140482,3950,4067,4056,4049,1745225838076775216
11141482,3984,4066,4061,4057,1745225838076775216
11142482,4006,4067,4066,4062,1745225838076775216
11143482,4024,4068,4068,4066,1745225838076775216
11144482,4035,4068,4071,4070,1745225838076775216
11145482,4044,4068,4072,4073,1745225838076775216
11146483,4051,4068,4074,4073,1745225838076775216
11147483,4054,4068,4076,4073,1745225838076775216
11148483,4058,4069,4076,4075,1745225838076775216
11149483,4060,4069,4076,4076,1745225838076775216
11150483,4061,4069,4077,4076,1745225838076775216
11151483,4062,4069,4077,4076,1745225838076775216
11152483,4064,4070,4077,4077,1745225838076775216
11153483,4065,4070,4078,4077,1745225838076775216
11154483,4065,4069,4078,4077,1745225838076775216
11155483,4066,4069,4078,4078,1745225838076775216
11156483,4065,4069,4077,4078,1745225838076775216
11157483,4067,4072,4081,4078,1745225838076775216
11158484,4067,4072,4078,4077,1745225838076775216
11159484,4067,4072,4078,4078,1745225838076775216
11160484,4067,4075,4078,4078,1745225838134392919
11161484,4067,4072,4078,4081,1745225838134392919
11162484,4067,4070,4078,4080,1745225838134392919
11163484,4068,4070,4078,4079,1745225838134392919
11164484,4067,4071,4078,4078,1745225838134392919
11165484,4068,4072,4080,4078,1745225838134392919
11166484,4068,4070,4080,4080,1745225838134392919
11167484,4068,4070,4082,4080,1745225838134392919
11168484,4068,4072,4078,4080,1745225838134392919
11169484,4066,4070,4080,4079,1745225838134392919
11170485,4067,4071,4080,4080,1745225838134392919
11171485,4068,4068,4081,4080,1745225838134392919
11172485,4069,4071,4080,4079,1745225838134392919
11173485,4069,4071,4079,4080,1745225838134392919
11174485,4068,4070,4079,4080,1745225838134392919
11175485,4067,4070,4080,4080,1745225838134392919
11176485,4069,4071,4080,4080,1745225838134392919
11177485,4069,4072,4079,4080,1745225838134392919
11178485,4069,4072,4079,4080,1745225838134392919
11179485,4068,4072,4080,4080,1745225838134392919
11180485,4069,4070,4078,4080,1745225838134392919
11181485,4069,4072,4080,4080,1745225838134392919
11182486,4069,4070,4080,4080,1745225838134392919
11183486,4069,4056,4080,4080,1745225838134392919
11184486,4068,3992,4080,4080,1745225838134392919
11185486,4069,3899,4080,4080,1745225838134392919
11186486,4069,3792,4080,4082,1745225838134392919
11187486,4068,3674,4082,4079,1745225838134392919
11188486,4069,3558,4056,4077,1745225838134392919
11189486,4066,3421,4082,4081,1745225838134392919
11190487,4069,3280,4081,4082,1745225838134392919
11191486,4068,3118,4078,4084,1745225838134392919
11192486,4068,2978,4079,4081,1745225838134392919
11193486,4069,2832,4080,4081,1745225838134392919
11194487,4069,2678,4081,4081,1745225838134392919
11195487,4069,2528,4081,4081,1745225838134392919
11196487,4069,2361,4081,4081,1745225838134392919
11197487,4069,2188,4068,4080,1745225838134392919
11198487,4066,2003,4081,4081,1745225838134392919
11199487,4068,1820,4081,4081,1745225838134392919
11200487,4068,1638,4081,4081,1745225838134392919
11201487,4069,1469,4081,4081,1745225838134392919
11202487,4069,1300,4081,4081,1745225838134392919
11203487,4068,1140,4081,4082,1745225838134392919
11204487,4069,988,4075,4082,1745225838134392919
11205487,4067,845,3926,4079,1745225838134392919
11206488,4068,708,3630,4081,1745225838134392919
11207488,4068,568,3267,4069,1745225838134392919
11208488,4067,464,2853,3888,1745225838134392919
11209488,4068,372,2453,3555,1745225838134392919
11210488,4068,300,2056,3132,1745225838134392919
11211488,4068,243,1670,2685,1745225838134392919
11212488,3989,198,1313,2254,1745225838134392919
11213488,3664,163,1027,1828,1745225838134392919
11214488,3195,136,810,1433,1745225838134392919
11215489,2656,114,644,1119,1745225838134392919
11216488,2108,97,513,884,1745225838134392919
11217488,1603,80,419,704,1745225838134392919
11218489,1251,73,337,563,1745225838194129405
11219489,984,64,271,462,1745225838194129405
11220489,781,58,219,372,1745225838194129405
11221489,625,53,179,300,1745225838194129405
11222489,510,49,147,244,1745225838194129405
11223489,412,46,122,200,1745225838194129405
11224489,333,43,102,163,1745225838194129405
11225489,270,41,88,134,1745225838194129405
11226489,221,38,75,113,1745225838194129405
11227489,182,38,65,96,1745225838194129405
11228489,152,36,56,81,1745225838194129405
11229489,128,36,51,70,1745225838194129405
11230490,108,35,46,61,1745225838194129405
11231490,94,33,42,54,1745225838194129405
11232490,82,34,40,50,1745225838194129405
11233490,73,34,36,45,1745225838194129405
11234490,64,32,35,42,1745225838194129405
11235490,58,33,34,38,1745225838194129405
11236490,54,32,32,36,1745225838194129405
11237490,50,33,32,34,1745225838194129405
11238490,47,32,31,34,1745225838194129405
11239490,45,31,29,33,1745225838194129405
11240490,43,32,29,32,1745225838194129405
11241490,41,32,29,32,1745225838194129405
11242491,41,31,28,29,1745225838194129405
11243491,38,30,28,29,1745225838194129405
11244491,38,31,28,28,1745225838194129405
11245491,37,32,27,28,1745225838194129405
11246491,36,31,27,28,1745225838194129405
11247491,35,30,27,27,1745225838194129405
11248491,35,30,37,27,1745225838194129405
11249492,35,30,20,26,1745225838194129405
11250491,35,30,26,27,1745225838194129405
11251491,35,31,26,27,1745225838194129405
11252491,34,30,26,27,1745225838194129405
11253491,34,30,25,26,1745225838194129405
11254492,34,30,26,26,1745225838194129405
11255492,34,29,26,26,1745225838194129405
11256492,34,31,33,26,1745225838194129405
11257492,34,30,20,26,1745225838194129405
11258492,33,30,25,27,1745225838194129405
11259492,33,30,26,26,1745225838194129405
11260492,34,30,25,26,1745225838194129405
11261492,33,30,26,26,1745225838194129405
11262492,33,30,26,26,1745225838194129405
11263492,33,30,26,26,1745225838194129405
11264492,33,30,25,26,1745225838194129405
11265492,33,30,25,26,1745225838194129405
11266493,35,30,26,26,1745225838194129405
11267493,33,30,26,25,1745225838194129405
11268493,33,29,26,26,1745225838194129405
11269493,32,30,26,26,1745225838194129405
11270493,33,32,25,26,1745225838194129405
11271493,33,70,25,26,1745225838194129405
11272493,31,153,25,25,1745225838194129405
11273493,33,264,26,26,1745225838194129405
11274493,33,393,26,25,1745225838194129405
11275493,33,520,25,26,1745225838194129405
11276493,32,653,25,26,1745225838250360505
11277493,32,779,25,26,1745225838250360505
11278494,33,900,25,25,1745225838250360505
11279494,33,1019,26,26,1745225838250360505
11280494,33,1146,25,26,1745225838250360505
11281494,33,1278,25,25,1745225838250360505
11282494,33,1421,25,26,1745225838250360505
11283494,33,1568,25,26,1745225838250360505
11284494,34,1736,25,25,1745225838250360505
11285494,34,1914,25,26,1745225838250360505
11286494,33,2100,26,26,1745225838250360505
11287494,34,2288,25,26,1745225838250360505
11288494,34,2469,25,25,1745225838250360505
11289494,34,2638,25,26,1745225838250360505
11290495,34,2812,26,25,1745225838250360505
11291495,34,2985,26,25,1745225838250360505
11292495,34,3161,26,25,1745225838250360505
11293495,34,3336,26,26,1745225838250360505
11294495,34,3513,118,27,1745225838250360505
11295495,35,3660,350,122,1745225838250360505
11296495,35,3774,671,364,1745225838250360505
11297495,35,3855,1055,697,1745225838250360505
11298495,35,3915,1470,1098,1745225838250360505
11299495,36,3957,1899,1535,1745225838250360505
11300495,53,3989,2357,1995,1745225838250360505
11301495,243,4011,2789,2484,1745225838250360505
11302496,590,4027,3131,2885,1745225838250360505
11303496,1061,4037,3390,3202,1745225838250360505
11304497,1600,4045,3583,3441,1745225838250360505
11305496,2180,4052,3717,3612,1745225838250360505
11306496,2632,4056,3813,3742,1745225838250360505
11307496,3013,4062,3897,3838,1745225838250360505
11308496,3303,4064,3928,3903,1745225838250360505
11309496,3525,4063,3934,3953,1745225838250360505
11310496,3658,4066,4009,3990,1745225838250360505
11311496,3774,4067,4029,4014,1745225838250360505
11312496,3856,4068,4042,4032,1745225838250360505
11313496,3916,4069,4051,4044,1745225838250360505
11314497,3958,4069,4059,4063,1745225838250360505
11315497,3988,4069,4064,4059,1745225838250360505
11316497,4010,4070,4067,4064,1745225838250360505
11317497,4026,4071,4068,4066,1745225838250360505
11318497,4037,4072,4070,4069,1745225838250360505
11319497,4044,4072,4073,4071,1745225838250360505
11320497,4049,4073,4074,4072,1745225838250360505
11321497,4053,4074,4074,4074,1745225838250360505
11322498,4058,4076,4074,4073,1745225838250360505
11323497,4059,4076,4076,4075,1745225838250360505
11324497,4060,4077,4075,4076,1745225838250360505
11325497,4061,4076,4075,4076,1745225838250360505
11326498,4062,4077,4076,4075,1745225838250360505
11327498,4061,4077,4079,4076,1745225838250360505
11328498,4063,4077,4074,4077,1745225838250360505
11329498,4064,4077,4077,4076,1745225838250360505
11330498,4064,4078,4076,4077,1745225838250360505
11331498,4064,4078,4076,4078,1745225838250360505
11332498,4066,4078,4077,4088,1745225838250360505
11333498,4066,4077,4076,4065,1745225838250360505
11334498,4066,4075,4077,4078,1745225838308660546
11335498,4065,4078,4076,4081,1745225838308660546
11336498,4065,4078,4077,4077,1745225838308660546
11337498,4066,4075,4076,4076,1745225838308660546
11338499,4065,4077,4076,4077,1745225838308660546
11339499,4066,4077,4077,4076,1745225838308660546
11340499,4066,4077,4077,4077,1745225838308660546
11341499,4066,4077,4077,4078,1745225838308660546
11342499,4066,4077,4077,4077,1745225838308660546
11343499,4066,4077,4077,4077,1745225838308660546
11344499,4066,4076,4075,4077,1745225838308660546
11345499,4068,4076,4076,4075,1745225838308660546
11346499,4072,4075,4076,4075,1745225838308660546
11347499,4073,4075,4076,4077,1745225838308660546
11348499,4074,4077,4075,4076,1745225838308660546
11349499,4075,4075,4076,4076,1745225838308660546
11350500,4076,4008,4076,4075,1745225838308660546
11351500,4075,3819,4076,4075,1745225838308660546
11352500,4076,3568,4076,4076,1745225838308660546
11353500,4075,3277,4075,4075,1745225838308660546
11354500,4075,2981,4076,4077,1745225838308660546
11355500,4077,2692,4076,4077,1745225838308660546
11356500,4078,2416,4077,4076,1745225838308660546
11357500,4077,2139,4078,4077,1745225838308660546
11358500,4078,1869,4077,4077,1745225838308660546
11359500,4078,1613,4077,4078,1745225838308660546
11360500,4077,1382,4014,4076,1745225838308660546
11361500,4078,1161,3737,4077,1745225838308660546
11362501,4078,956,3342,4045,1745225838308660546
11363501,4077,770,2901,3817,1745225838308660546
11364501,4081,612,2482,3459,1745225838308660546
11365501,4079,497,2084,3036,1745225838308660546
11366501,4079,398,1710,2616,1745225838308660546
11367501,3934,317,1371,2216,1745225838308660546
11368501,3564,256,1070,1824,1745225838308660546
11369501,3062,206,843,1458,1745225838308660546
11370501,2530,162,670,1141,1745225838308660546
11371502,1992,137,533,898,1745225838308660546
11372501,1527,113,435,716,1745225838308660546
11373501,1189,96,349,572,1745225838308660546
11374502,936,81,281,468,1745225838308660546
11375502,745,68,228,377,1745225838308660546
11376502,594,59,186,305,1745225838308660546
11377502,485,52,152,248,1745225838308660546
11378502,389,48,125,202,1745225838308660546
11379502,313,43,105,165,1745225838308660546
11380502,253,39,89,136,1745225838308660546
11381502,206,36,77,113,1745225838308660546
11382502,169,35,66,96,1745225838308660546
11383502,139,33,58,81,1745225838308660546
11384502,116,32,52,70,1745225838308660546
11385502,97,29,46,61,1745225838308660546
11386503,83,29,42,54,1745225838308660546
11387503,72,28,40,49,1745225838308660546
11388503,62,27,37,44,1745225838308660546
11389503,55,27,35,42,1745225838308660546
11390503,50,28,33,38,1745225838308660546
11391503,45,27,33,36,1745225838308660546
11392503,42,26,32,34,1745225838367867713
11393503,38,26,30,32,1745225838367867713
11394503,36,26,29,32,1745225838367867713
11395503,34,26,29,32,1745225838367867713
11396503,33,26,28,30,1745225838367867713
11397503,32,25,28,29,1745225838367867713
11398504,32,25,28,28,1745225838367867713
11399504,30,25,28,28,1745225838367867713
11400504,29,26,27,28,1745225838367867713
11401504,28,27,26,28,1745225838367867713
11402504,28,43,26,27,1745225838367867713
11403504,27,85,27,28,1745225838367867713
11404504,28,146,27,26,1745225838367867713
11405504,28,218,26,26,1745225838367867713
11406504,27,291,27,26,1745225838367867713
11407504,26,363,26,26,1745225838367867713
11408504,26,434,26,26,1745225838367867713
11409504,27,507,26,26,1745225838367867713
11410505,26,553,26,26,1745225838367867713
11411505,26,611,26,26,1745225838367867713
11412505,26,666,26,26,1745225838367867713
11413505,26,718,26,26,1745225838367867713
11414505,25,768,26,25,1745225838367867713
11415505,26,819,26,26,1745225838367867713
11416505,26,864,26,25,1745225838367867713
11417505,25,904,26,26,1745225838367867713
11418505,26,940,26,26,1745225838367867713
11419505,27,978,26,26,1745225838367867713
11420507,26,1019,25,26,1745225838367867713
11421505,25,1066,25,26,1745225838367867713
11422506,26,1120,25,25,1745225838367867713
11423506,25,1180,26,24,1745225838367867713
11424506,26,1251,26,26,1745225838367867713
11425506,25,1325,26,25,1745225838367867713
11426506,25,1396,26,26,1745225838367867713
11427506,25,1460,26,25,1745225838367867713
11428506,25,1516,26,25,1745225838367867713
11429506,25,1550,26,25,1745225838367867713
11430506,25,1600,26,25,1745225838367867713
11431506,25,1638,26,26,1745225838367867713
11432506,24,1674,26,26,1745225838367867713
11433506,25,1708,26,25,1745225838367867713
11434507,26,1744,33,26,1745225838367867713
11435507,26,1780,69,30,1745225838367867713
11436507,26,1814,124,58,1745225838367867713
11437507,25,1843,187,100,1745225838367867713
11438507,25,1869,251,149,1745225838367867713
11439507,25,1891,317,205,1745225838367867713
11440507,25,1913,386,267,1745225838367867713
11441507,26,1933,459,339,1745225838367867713
11442507,25,1957,526,424,1745225838367867713
11443507,25,1986,612,512,1745225838367867713
11444507,25,2024,708,627,1745225838367867713
11445507,25,2072,812,752,1745225838367867713
11446508,38,2123,920,878,1745225838367867713
11447508,104,2176,1024,1001,1745225838367867713
11448508,210,2224,1122,1116,1745225838367867713
11449508,337,2266,1213,1226,1745225838367867713
11450508,474,2297,1301,1329,1745225838427763833
11451508,602,2334,1392,1433,1745225838427763833
11452508,743,2372,1493,1535,1745225838427763833
11453508,888,2414,1597,1656,1745225838427763833
11454508,1046,2465,1726,1791,1745225838427763833
11455508,1217,2523,1868,1937,1745225838427763833
11456508,1403,2574,2021,2090,1745225838427763833
11457508,1593,2630,2181,2244,1745225838427763833
11458509,1799,2685,2348,2402,1745225838427763833
11459509,2015,2741,2520,2562,1745225838427763833
11460509,2245,2800,2692,2742,1745225838427763833
11461509,2485,2861,2882,2936,1745225838427763833
11462509,2733,2929,3084,3147,1745225838427763833
11463509,3008,3008,3301,3379,1745225838427763833
11464509,3290,3099,3516,3576,1745225838427763833
11465509,3506,3204,3668,3709,1745225838427763833
11466509,3657,3324,3785,3814,1745225838427763833
11467509,3773,3454,3868,3889,1745225838427763833
11468509,3856,3596,3928,3942,1745225838427763833
11469509,3916,3728,3971,3980,1745225838427763833
11470510,3958,3828,4000,4008,1745225838427763833
11471510,3990,3896,4022,4027,1745225838427763833
11472510,4012,3948,4037,4042,1745225838427763833
11473510,4027,3985,4049,4050,1745225838427763833
11474510,4036,4010,4055,4059,1745225838427763833
11475510,4044,4028,4061,4063,1745225838427763833
11476510,4049,4042,4066,4066,1745225838427763833
11477510,4053,4051,4068,4069,1745225838427763833
11478510,4056,4059,4070,4072,1745225838427763833
11479510,4057,4062,4072,4075,1745225838427763833
11480510,4056,4067,4073,4074,1745225838427763833
11481511,4060,4069,4075,4076,1745225838427763833
11482512,4043,4070,4056,4072,1745225838427763833
11483511,4067,4053,4074,4075,1745225838427763833
11484511,4062,4071,4076,4076,1745225838427763833
11485511,4061,4073,4076,4077,1745225838427763833
11486511,4062,4073,4076,4077,1745225838427763833
11487511,4061,4074,4080,4076,1745225838427763833
11488511,4063,4072,4074,4074,1745225838427763833
11489511,4058,4072,4076,4078,1745225838427763833
11490511,4064,4073,4077,4078,1745225838427763833
11491511,4064,4074,4077,4078,1745225838427763833
11492511,4065,4074,4078,4078,1745225838427763833
11493511,4064,4074,4077,4078,1745225838427763833
11494512,4065,4074,4078,4079,1745225838427763833
11495512,4066,4074,4077,4077,1745225838427763833
11496512,4065,4074,4078,4078,1745225838427763833
11497512,4066,4074,4081,4078,1745225838427763833
11498512,4065,4075,4078,4079,1745225838427763833
11499512,4065,4075,4078,4078,1745225838427763833
11500512,4065,4075,4078,4078,1745225838427763833
11501512,4066,4075,4078,4078,1745225838427763833
11502512,4066,4074,4078,4078,1745225838427763833
11503512,4066,4075,4078,4079,1745225838427763833
11504512,4066,4074,4080,4079,1745225838427763833
11505512,4065,4075,4078,4079,1745225838427763833
11506513,4067,4074,4078,4078,1745225838427763833
11507513,4066,4074,4081,4078,1745225838427763833
11508513,4067,4075,4078,4079,1745225838483960455
11509513,4066,4075,4080,4079,1745225838483960455
11510513,4065,4078,4078,4078,1745225838483960455
11511513,4065,4078,4078,4077,1745225838483960455
11512513,4065,4083,4079,4078,1745225838483960455
11513513,4066,4078,4079,4079,1745225838483960455
11514513,4066,4080,4078,4078,1745225838483960455
11515513,4065,4086,4079,4080,1745225838483960455
11516513,4065,4057,4078,4078,1745225838483960455
11517513,4067,3969,4078,4079,1745225838483960455
11518514,4066,3805,4078,4079,1745225838483960455
11519514,4065,3617,4077,4078,1745225838483960455
11520514,4066,3433,4078,4079,1745225838483960455
11521514,4067,3248,4077,4079,1745225838483960455
11522514,4066,3077,4078,4079,1745225838483960455
11523514,4066,2929,4079,4080,1745225838483960455
11524514,4066,2806,4080,4080,1745225838483960455
11525514,4067,2704,4080,4080,1745225838483960455
11526514,4066,2606,4080,4080,1745225838483960455
11527514,4068,2524,4081,4080,1745225838483960455
11528514,4069,2426,4079,4080,1745225838483960455
11529514,4068,2324,4080,4080,1745225838483960455
11530515,4069,2220,4079,4079,1745225838483960455
11531515,4069,2113,4080,4078,1745225838483960455
11532515,4070,2003,4079,4079,1745225838483960455
11533515,4070,1892,4078,4079,1745225838483960455
11534515,4072,1777,4079,4080,1745225838483960455
11535515,4074,1651,4078,4078,1745225838483960455
11536515,4074,1522,4075,4078,1745225838483960455
11537515,4075,1369,3940,4081,1745225838483960455
11538515,4076,1203,3635,4075,1745225838483960455
11539515,4076,1021,3239,3939,1745225838483960455
11540517,4080,832,2785,3557,1745225838483960455
11541517,4081,661,2334,3090,1745225838483960455
11542516,4081,523,1874,2593,1745225838483960455
11543516,4083,426,1458,2117,1745225838483960455
11544516,3897,340,1134,1656,1745225838483960455
11545516,3476,274,891,1288,1745225838483960455
11546516,2925,221,707,1012,1745225838483960455
11547516,2346,178,564,802,1745225838483960455
11548516,1785,145,460,641,1745225838483960455
11549516,1380,120,369,513,1745225838483960455
11550516,1081,99,297,421,1745225838483960455
11551516,853,83,240,340,1745225838483960455
11552516,680,72,195,275,1745225838483960455
11553516,544,59,160,224,1745225838483960455
11554517,445,55,132,182,1745225838483960455
11555517,357,48,110,150,1745225838483960455
11556517,289,44,93,124,1745225838483960455
11557517,234,41,79,105,1745225838483960455
11558517,190,37,69,89,1745225838483960455
11559517,156,35,60,76,1745225838483960455
11560517,130,33,53,66,1745225838483960455
11561517,108,32,49,58,1745225838483960455
11562517,92,29,44,52,1745225838483960455
11563517,79,30,41,47,1745225838483960455
11564517,68,29,37,43,1745225838483960455
11565517,60,28,36,40,1745225838483960455
11566518,53,27,34,37,1745225838544602036
11567518,49,27,33,34,1745225838544602036
11568518,44,26,32,34,1745225838544602036
11569518,41,26,30,32,1745225838544602036
11570518,37,27,30,24,1745225838544602036
11571518,35,26,29,30,1745225838544602036
11572518,34,22,29,30,1745225838544602036
11573518,33,26,29,29,1745225838544602036
11574518,32,25,28,29,1745225838544602036
11575518,30,25,28,28,1745225838544602036
11576518,29,26,27,29,1745225838544602036
11577518,29,25,27,27,1745225838544602036
11578519,28,26,28,27,1745225838544602036
11579519,28,25,27,27,1745225838544602036
11580519,27,25,26,26,1745225838544602036
11581519,27,26,26,27,1745225838544602036
11582519,27,25,27,26,1745225838544602036
11583519,27,26,26,26,1745225838544602036
11584519,26,24,26,26,1745225838544602036
11585519,19,25,26,26,1745225838544602036
11586519,26,25,26,26,1745225838544602036
11587519,27,25,26,27,1745225838544602036
11588519,26,26,25,27,1745225838544602036
11589519,25,47,26,26,1745225838544602036
11590520,26,102,26,26,1745225838544602036
11591520,26,182,26,26,1745225838544602036
11592520,26,276,26,26,1745225838544602036
11593520,26,378,26,26,1745225838544602036
11594520,26,481,26,26,1745225838544602036
11595521,26,569,26,26,1745225838544602036
11596520,26,659,26,21,1745225838544602036
11597520,28,737,27,26,1745225838544602036
11598520,28,804,26,25,1745225838544602036
11599520,28,861,28,26,1745225838544602036
11600521,28,915,26,26,1745225838544602036
11601520,27,963,26,26,1745225838544602036
11602521,30,1007,26,25,1745225838544602036
11603521,32,1044,26,25,1745225838544602036
11604521,32,1074,26,25,1745225838544602036
11605521,32,1092,25,25,1745225838544602036
11606521,32,1097,28,26,1745225838544602036
11607521,32,1084,26,26,1745225838544602036
11608521,32,1057,25,25,1745225838544602036
11609521,33,1018,25,25,1745225838544602036
11610521,33,974,26,25,1745225838544602036
11611521,33,932,25,25,1745225838544602036
11612521,33,893,25,30,1745225838544602036
11613521,33,860,25,25,1745225838544602036
11614522,33,834,25,25,1745225838544602036
11615522,34,810,25,26,1745225838544602036
11616522,34,785,25,25,1745225838544602036
11617522,34,755,25,26,1745225838544602036
11618522,34,719,25,25,1745225838544602036
11619522,33,680,25,25,1745225838544602036
11620522,34,645,26,25,1745225838544602036
11621522,34,618,25,25,1745225838544602036
11622522,34,606,25,26,1745225838544602036
11623522,34,609,25,25,1745225838544602036
11624522,34,627,25,26,1745225838601104906
11625522,34,658,26,25,1745225838601104906
11626523,34,697,25,25,1745225838601104906
11627523,35,737,26,25,1745225838601104906
11628523,34,774,25,25,1745225838601104906
11629523,35,811,25,25,1745225838601104906
11630523,34,844,25,25,1745225838601104906
11631523,34,874,25,25,1745225838601104906
11632523,35,902,25,22,1745225838601104906
11633523,34,931,25,25,1745225838601104906
11634523,35,960,25,25,1745225838601104906
11635523,34,991,25,25,1745225838601104906
11636523,34,1019,25,25,1745225838601104906
11637524,34,1042,25,25,1745225838601104906
11638524,34,1067,25,25,1745225838601104906
11639524,34,1096,25,26,1745225838601104906
11640524,35,1133,25,26,1745225838601104906
11641524,34,1180,25,25,1745225838601104906
11642524,34,1240,25,26,1745225838601104906
11643524,34,1310,25,25,1745225838601104906
11644524,34,1393,25,25,1745225838601104906
11645524,35,1486,25,25,1745225838601104906
11646524,34,1571,25,26,1745225838601104906
11647524,35,1665,25,26,1745225838601104906
11648524,35,1752,24,25,1745225838601104906
11649524,35,1834,25,25,1745225838601104906
11650525,36,1910,25,25,1745225838601104906
11651525,35,1982,25,25,1745225838601104906
11652525,35,2053,54,34,1745225838601104906
11653525,34,2117,139,100,1745225838601104906
11654525,34,2180,262,217,1745225838601104906
11655525,35,2229,409,362,1745225838601104906
11656525,35,2292,553,511,1745225838601104906
11657525,35,2336,705,657,1745225838601104906
11658525,36,2374,851,801,1745225838601104906
11659525,35,2404,1004,945,1745225838601104906
11660525,35,2438,1140,1093,1745225838601104906
11661525,36,2474,1288,1246,1745225838601104906
11662526,43,2514,1441,1409,1745225838601104906
11663526,122,2559,1594,1581,1745225838601104906
11664526,275,2611,1769,1779,1745225838601104906
11665526,484,2684,1955,1997,1745225838601104906
11666526,720,2769,2163,2234,1745225838601104906
11667526,988,2866,2390,2486,1745225838601104906
11668526,1276,2976,2631,2752,1745225838601104906
11669526,1578,3104,2914,3056,1745225838601104906
11670526,1917,3250,3218,3332,1745225838601104906
11671526,2300,3420,3456,3540,1745225838601104906
11672526,2715,3590,3622,3684,1745225838601104906
11673526,3068,3723,3752,3796,1745225838601104906
11674527,3337,3821,3845,3875,1745225838601104906
11675527,3539,3891,3912,3934,1745225838601104906
11676527,3680,3942,3960,3975,1745225838601104906
11677527,3784,3978,3992,4004,1745225838601104906
11678527,3865,4005,4018,4025,1745225838601104906
11679527,3921,4024,4034,4040,1745225838601104906
11680527,3962,4037,4046,4050,1745225838601104906
11681527,3990,4046,4059,4057,1745225838601104906
11682527,4011,4053,4061,4064,1745225838661317428
11683527,4025,4058,4065,4066,1745225838661317428
11684527,4035,4062,4068,4070,1745225838661317428
11685527,4043,4064,4070,4072,1745225838661317428
11686528,4048,4066,4073,4072,1745225838661317428
11687528,4052,4067,4073,4073,1745225838661317428
11688528,4054,4069,4074,4073,1745225838661317428
11689528,4057,4070,4075,4077,1745225838661317428
11690528,4058,4070,4076,4077,1745225838661317428
11691528,4059,4072,4077,4077,1745225838661317428
11692528,4060,4072,4076,4077,1745225838661317428
11693528,4063,4072,4077,4077,1745225838661317428
11694528,4061,4073,4077,4078,1745225838661317428
11695528,4064,4073,4077,4078,1745225838661317428
11696528,4061,4073,4077,4078,1745225838661317428
11697528,4062,4072,4078,4078,1745225838661317428
11698529,4064,4073,4078,4080,1745225838661317428
11699529,4056,4061,4073,4077,1745225838661317428
11700529,4065,4074,4076,4078,1745225838661317428
11701529,4064,4073,4078,4078,1745225838661317428
11702529,4064,4074,4078,4079,1745225838661317428
11703529,4063,4073,4079,4078,1745225838661317428
11704529,4064,4073,4078,4078,1745225838661317428
11705529,4065,4072,4079,4080,1745225838661317428
11706529,4065,4073,4079,4079,1745225838661317428
11707529,4065,4074,4078,4080,1745225838661317428
11708529,4064,4074,4078,4080,1745225838661317428
11709529,4065,4074,4078,4080,1745225838661317428
11710530,4065,4073,4078,4079,1745225838661317428
11711530,4065,4073,4080,4079,1745225838661317428
11712530,4065,4073,4078,4080,1745225838661317428
11713530,4065,4074,4078,4080,1745225838661317428
11714530,4066,4074,4077,4079,1745225838661317428
11715530,4065,4074,4081,4080,1745225838661317428
11716531,4064,4081,4058,4077,1745225838661317428
11717530,4065,4072,4082,4079,1745225838661317428
11718530,4066,4073,4078,4080,1745225838661317428
11719530,4066,4073,4079,4080,1745225838661317428
11720530,4066,4074,4080,4080,1745225838661317428
11721530,4066,4073,4079,4068,1745225838661317428
11722531,4068,4071,4080,4080,1745225838661317428
11723531,4066,4073,4080,4080,1745225838661317428
11724531,4066,4074,4079,4080,1745225838661317428
11725531,4066,4073,4079,4080,1745225838661317428
11726531,4067,4057,4080,4080,1745225838661317428
11727531,4066,3978,4082,4080,1745225838661317428
11728531,4066,3872,4080,4081,1745225838661317428
11729531,4066,3736,4080,4080,1745225838661317428
11730531,4066,3589,4080,4080,1745225838661317428
11731531,4066,3447,4079,4081,1745225838661317428
11732531,4066,3298,4079,4080,1745225838661317428
11733531,4066,3149,4080,4081,1745225838661317428
11734532,4066,3003,4080,4080,1745225838661317428
11735532,4066,2861,4081,4081,1745225838661317428
11736532,4066,2726,4081,4082,1745225838661317428
11737532,4066,2595,4081,4080,1745225838661317428
11738532,4066,2475,4081,4081,1745225838661317428
11739532,4066,2347,4081,4080,1745225838661317428
11740532,4066,2220,4082,4081,1745225838724663673
11741532,4066,2089,4081,4081,1745225838724663673
11742532,4066,1956,4081,4082,1745225838724663673
11743532,4066,1825,4079,4081,1745225838724663673
11744532,4064,1699,4080,4082,1745225838724663673
11745532,4065,1576,4081,4081,1745225838724663673
11746533,4066,1466,4081,4081,1745225838724663673
11747533,4065,1346,4080,4082,1745225838724663673
11748533,4066,1224,4081,4081,1745225838724663673
11749533,4065,1099,4080,4081,1745225838724663673
11750533,4066,966,4080,4081,1745225838724663673
11751533,4066,849,4081,4081,1745225838724663673
11752533,4065,728,3997,4081,1745225838724663673
11753533,4066,612,3780,4081,1745225838724663673
11754533,4067,511,3506,4074,1745225838724663673
11755533,4066,421,3203,3939,1745225838724663673
11756533,4066,337,2905,3682,1745225838724663673
11757533,4067,271,2621,3374,1745225838724663673
11758534,4068,219,2368,3046,1745225838724663673
11759534,4068,178,2126,2734,1745225838724663673
11760534,4068,145,1904,2460,1745225838724663673
11761534,4054,120,1704,2208,1745225838724663673
11762534,3896,100,1529,1982,1745225838724663673
11763534,3628,85,1361,1786,1745225838724663673
11764534,3328,73,1203,1605,1745225838724663673
11765534,3016,62,1040,1438,1745225838724663673
11766534,2710,54,860,1250,1745225838724663673
11767534,2410,50,682,1036,1745225838724663673
11768534,2090,46,542,820,1745225838724663673
11769534,1741,41,443,655,1745225838724663673
11770535,1384,38,356,524,1745225838724663673
11771535,1081,36,286,430,1745225838724663673
11772535,855,34,230,346,1745225838724663673
11773535,682,33,188,281,1745225838724663673
11774535,547,32,155,228,1745225838724663673
11775535,449,30,128,186,1745225838724663673
11776535,363,29,107,153,1745225838724663673
11777535,292,28,90,128,1745225838724663673
11778535,239,28,77,106,1745225838724663673
11779535,196,28,67,90,1745225838724663673
11780535,161,27,59,77,1745225838724663673
11781535,134,27,52,67,1745225838724663673
11782536,112,26,48,58,1745225838724663673
11783536,96,25,37,52,1745225838724663673
11784536,81,26,41,50,1745225838724663673
11785536,70,26,37,43,1745225838724663673
11786536,62,26,35,41,1745225838724663673
11787536,54,26,34,37,1745225838724663673
11788536,49,25,33,35,1745225838724663673
11789536,45,25,32,34,1745225838724663673
11790536,42,25,30,33,1745225838724663673
11791536,38,25,29,32,1745225838724663673
11792536,36,25,29,31,1745225838724663673
11793536,34,25,28,29,1745225838724663673
11794537,33,24,28,28,1745225838724663673
11795537,32,25,28,28,1745225838724663673
11796537,32,25,28,28,1745225838724663673
11797537,29,25,27,27,1745225838724663673
11798537,29,25,27,27,1745225838776575178
11799537,28,24,27,28,1745225838776575178
11800537,27,25,27,27,1745225838776575178
11801537,28,24,27,27,1745225838776575178
11802537,28,25,27,27,1745225838776575178
11803537,27,24,26,27,1745225838776575178
11804537,27,25,26,27,1745225838776575178
11805537,26,24,26,26,1745225838776575178
11806538,26,24,26,26,1745225838776575178
11807538,26,25,27,26,1745225838776575178
11808538,26,25,26,25,1745225838776575178
11809538,26,24,26,26,1745225838776575178
11810538,26,24,26,26,1745225838776575178
11811538,25,24,26,26,1745225838776575178
11812538,26,25,26,25,1745225838776575178
11813538,26,24,26,25,1745225838776575178
11814538,25,24,26,26,1745225838776575178
11815538,26,25,25,26,1745225838776575178
11816538,25,25,25,26,1745225838776575178
11817538,25,24,25,26,1745225838776575178
11818539,26,24,25,25,1745225838776575178
11819539,26,24,26,25,1745225838776575178
11820539,26,24,25,25,1745225838776575178
11821539,25,24,25,26,1745225838776575178
11822539,25,24,26,26,1745225838776575178
11823539,24,23,25,25,1745225838776575178
11824539,25,22,26,25,1745225838776575178
11825539,26,24,26,25,1745225838776575178
11826539,25,22,28,25,1745225838776575178
11827539,28,25,25,25,1745225838776575178
11828539,25,46,25,25,1745225838776575178
11829539,24,99,25,25,1745225838776575178
11830540,25,174,25,25,1745225838776575178
11831540,25,259,25,24,1745225838776575178
11832540,25,350,26,25,1745225838776575178
11833541,25,441,25,25,1745225838776575178
11834540,25,521,25,25,1745225838776575178
11835540,25,605,25,25,1745225838776575178
11836540,25,681,25,24,1745225838776575178
11837540,25,746,26,25,1745225838776575178
11838540,25,803,25,25,1745225838776575178
11839540,25,857,25,24,1745225838776575178
11840540,24,908,25,26,1745225838776575178
11841540,24,964,25,25,1745225838776575178
11842541,25,1024,25,25,1745225838776575178
11843541,26,1094,25,25,1745225838776575178
11844541,25,1179,26,25,1745225838776575178
11845541,25,1275,25,25,1745225838776575178
11846541,24,1369,25,25,1745225838776575178
11847541,25,1473,25,25,1745225838776575178
11848541,25,1560,26,24,1745225838776575178
11849541,25,1652,25,25,1745225838776575178
11850541,25,1741,26,25,1745225838776575178
11851541,25,1819,25,25,1745225838776575178
11852541,24,1891,25,25,1745225838776575178
11853541,25,1950,26,25,1745225838776575178
11854542,24,2001,26,25,1745225838776575178
11855542,25,2050,26,25,1745225838776575178
11856542,25,2093,25,25,1745225838840055483
11857542,24,2131,25,25,1745225838840055483
11858542,25,2162,25,25,1745225838840055483
11859542,25,2192,26,25,1745225838840055483
11860542,24,2225,25,25,1745225838840055483
11861542,25,2262,26,25,1745225838840055483
11862542,25,2305,25,25,1745225838840055483
11863542,25,2357,25,25,1745225838840055483
11864542,24,2420,25,26,1745225838840055483
11865542,24,2491,17,25,1745225838840055483
11866543,26,2559,27,24,1745225838840055483
11867543,25,2620,38,26,1745225838840055483
11868543,25,2673,106,64,1745225838840055483
11869543,25,2711,211,157,1745225838840055483
11870543,24,2732,336,283,1745225838840055483
11871543,26,2747,470,426,1745225838840055483
11872543,25,2756,596,564,1745225838840055483
11873543,29,2769,732,714,1745225838840055483
11874543,25,2783,861,858,1745225838840055483
11875543,25,2801,986,993,1745225838840055483
11876543,25,2812,1099,1113,1745225838840055483
11877543,25,2814,1198,1216,1745225838840055483
11878544,25,2809,1288,1302,1745225838840055483
11879544,25,2805,1370,1384,1745225838840055483
11880544,25,2811,1454,1467,1745225838840055483
11881544,26,2822,1535,1547,1745225838840055483
11882544,28,2836,1624,1646,1745225838840055483
11883544,77,2860,1725,1761,1745225838840055483
11884544,184,2900,1837,1891,1745225838840055483
11885544,329,2952,1960,2037,1745225838840055483
11886544,505,3010,2083,2192,1745225838840055483
11887544,692,3065,2210,2341,1745225838840055483
11888544,883,3112,2325,2483,1745225838840055483
11889545,1081,3147,2434,2609,1745225838840055483
11890545,1273,3178,2537,2733,1745225838840055483
11891546,1457,3201,2625,2858,1745225838840055483
11892545,1616,3226,2718,2960,1745225838840055483
11893545,1795,3245,2808,3062,1745225838840055483
11894545,1958,3257,2896,3160,1745225838840055483
11895545,2117,3261,2977,3244,1745225838840055483
11896546,2267,3252,3045,3314,1745225838840055483
11897545,2429,3253,3100,3391,1745225838840055483
11898545,2526,3196,3136,3403,1745225838840055483
11899545,2625,3171,3163,3438,1745225838840055483
11900545,2720,3153,3193,3474,1745225838840055483
11901545,2806,3141,3229,3518,1745225838840055483
11902546,2889,3140,3274,3577,1745225838840055483
11903546,2974,3152,3330,3642,1745225838840055483
11904546,3068,3176,3406,3736,1745225838840055483
11905546,3176,3205,3500,3833,1745225838840055483
11906546,3302,3228,3585,3902,1745225838840055483
11907546,3441,3243,3680,3951,1745225838840055483
11908546,3583,3253,3758,3986,1745225838840055483
11909546,3714,3253,3832,4013,1745225838840055483
11910546,3816,3244,3899,4028,1745225838840055483
11911546,3890,3229,3949,4042,1745225838840055483
11912546,3942,3220,3985,4051,1745225838840055483
11913546,3980,3212,4009,4056,1745225838840055483
11914547,4006,3203,4027,4060,1745225838893203383
11915547,4026,3186,4042,4064,1745225838893203383
11916547,4037,3164,4049,4066,1745225838893203383
11917547,4051,3137,4055,4068,1745225838893203383
11918547,4056,3109,4060,4069,1745225838893203383
11919547,4060,3085,4064,4070,1745225838893203383
11920547,4064,3062,4066,4072,1745225838893203383
11921547,4067,3049,4067,4072,1745225838893203383
11922547,4069,3046,4069,4072,1745225838893203383
11923547,4069,3060,4070,4072,1745225838893203383
11924547,4070,3094,4070,4072,1745225838893203383
11925547,4070,3142,4070,4073,1745225838893203383
11926548,4072,3189,4072,4073,1745225838893203383
11927548,4076,3229,4072,4073,1745225838893203383
11928548,4073,3256,4073,4074,1745225838893203383
11929548,4074,3273,4072,4075,1745225838893203383
11930548,4073,3281,4073,4074,1745225838893203383
11931548,4074,3286,4072,4074,1745225838893203383
11932548,4073,3289,4073,4074,1745225838893203383
11933548,4074,3294,4074,4075,1745225838893203383
11934548,4074,3302,4074,4074,1745225838893203383
11935548,4074,3307,4074,4074,1745225838893203383
11936548,4074,3301,4073,4074,1745225838893203383
11937548,4076,3280,4072,4075,1745225838893203383
11938549,4075,3249,4074,4075,1745225838893203383
11939549,4074,3209,4074,4074,1745225838893203383
11940549,4075,3166,4074,4075,1745225838893203383
11941549,4076,3128,4074,4074,1745225838893203383
11942549,4074,3096,4073,4075,1745225838893203383
11943549,4074,3074,4075,4074,1745225838893203383
11944549,4074,3064,4074,4074,1745225838893203383
11945549,4076,3067,4075,4075,1745225838893203383
11946549,4074,3078,4075,4073,1745225838893203383
11947549,4077,3090,4073,4075,1745225838893203383
11948549,4075,3098,4076,4075,1745225838893203383
11949549,4074,3123,4072,4074,1745225838893203383
11950551,4072,3105,4077,4074,1745225838893203383
11951550,4075,3104,4084,4075,1745225838893203383
11952550,4076,3101,4075,4075,1745225838893203383
11953550,4075,3094,4074,4075,1745225838893203383
11954550,4075,3086,4074,4076,1745225838893203383
11955550,4095,3050,4072,4074,1745225838893203383
11956550,4075,3058,4076,4075,1745225838893203383
11957550,4078,3034,4077,4075,1745225838893203383
11958550,4076,3008,4076,4076,1745225838893203383
11959550,4076,2978,4075,4075,1745225838893203383
11960550,4076,2946,4070,4072,1745225838893203383
11961550,4072,2910,4076,4076,1745225838893203383
11962551,4074,2893,4075,4076,1745225838893203383
11963551,4077,2885,4077,4075,1745225838893203383
11964551,4077,2897,4076,4076,1745225838893203383
11965551,4076,2924,4075,4076,1745225838893203383
11966551,4076,2953,4076,4076,1745225838893203383
11967551,4080,2973,4074,4076,1745225838893203383
11968551,4076,2991,4075,4075,1745225838893203383
11969551,4077,3002,4075,4075,1745225838893203383
11970551,4077,3003,4075,4075,1745225838893203383
11971551,4077,2990,4077,4076,1745225838893203383
11972551,4076,2969,4075,4077,1745225838953751268
11973551,4076,2946,4075,4076,1745225838953751268
11974552,4078,2925,4076,4077,1745225838953751268
11975552,4076,2906,4076,4076,1745225838953751268
11976552,4077,2882,4076,4077,1745225838953751268
11977552,4080,2845,4075,4076,1745225838953751268
11978552,4077,2799,4076,4076,1745225838953751268
11979552,4077,2749,4077,4077,1745225838953751268
11980552,4078,2707,4077,4076,1745225838953751268
11981552,4077,2672,4077,4077,1745225838953751268
11982552,4078,2646,4076,4078,1745225838953751268
11983552,4077,2633,4077,4077,1745225838953751268
11984552,4077,2632,4077,4077,1745225838953751268
11985552,4077,2640,4076,4077,1745225838953751268
11986553,4078,2653,4076,4077,1745225838953751268
11987553,4081,2668,4076,4077,1745225838953751268
11988553,4078,2680,4077,4077,1745225838953751268
11989553,4077,2686,4076,4077,1745225838953751268
11990553,4078,2694,4076,4079,1745225838953751268
11991553,4078,2709,4077,4077,1745225838953751268
11992553,4078,2730,4077,4077,1745225838953751268
11993553,4078,2746,4076,4077,1745225838953751268
11994553,4078,2755,4077,4078,1745225838953751268
11995553,4079,2752,4076,4077,1745225838953751268
11996553,4078,2734,4077,4077,1745225838953751268
11997553,4081,2704,4075,4077,1745225838953751268
11998554,4078,2664,4076,4077,1745225838953751268
11999554,4078,2624,4074,4078,1745225838953751268
12000554,4078,2585,4050,4077,1745225838953751268
12001554,4078,2556,4013,4077,1745225838953751268
12002554,4077,2525,3980,4077,1745225838953751268
12003554,4078,2508,3964,4076,1745225838953751268
12004554,4078,2507,3965,4076,1745225838953751268
12005554,4077,2521,3983,4076,1745225838953751268
12006554,4078,2539,4006,4076,1745225838953751268
12007554,4081,2556,4025,4076,1745225838953751268
12008554,4076,2571,4002,4074,1745225838953751268
12009554,4078,2570,4038,4076,1745225838953751268
12010555,4078,2576,4032,4076,1745225838953751268
12011555,4077,2576,4019,4076,1745225838953751268
12012555,4078,2570,3996,4076,1745225838953751268
12013555,4078,2559,3973,4073,1745225838953751268
12014555,4077,2558,3949,4077,1745225838953751268
12015555,4077,2509,3929,4077,1745225838953751268
12016555,4077,2470,3898,4077,1745225838953751268
12017555,4081,2427,3857,4061,1745225838953751268
12018555,4078,2380,3800,4013,1745225838953751268
12019555,4078,2334,3746,3949,1745225838953751268
12020555,4077,2298,3694,3886,1745225838953751268
12021555,4080,2271,3652,3829,1745225838953751268
12022556,4078,2259,3620,3787,1745225838953751268
12023556,4078,2265,3606,3767,1745225838953751268
12024556,4078,2295,3605,3771,1745225838953751268
12025556,4078,2345,3620,3794,1745225838953751268
12026556,4078,2411,3643,3821,1745225838953751268
12027556,4081,2481,3662,3844,1745225838953751268
12028556,4077,2538,3677,3854,1745225838953751268
12029556,4078,2566,3680,3851,1745225838953751268
12030556,4077,2579,3670,3838,1745225839010127992
12031556,4077,2568,3650,3821,1745225839010127992
12032556,4077,2548,3626,3799,1745225839010127992
12033556,4077,2514,3595,3776,1745225839010127992
12034557,4078,2480,3569,3749,1745225839010127992
12035557,4075,2442,3524,3713,1745225839010127992
12036557,4078,2402,3469,3661,1745225839010127992
12037557,4081,2360,3404,3600,1745225839010127992
12038557,4077,2317,3347,3532,1745225839010127992
12039557,4066,2280,3296,3461,1745225839010127992
12040557,4021,2246,3253,3396,1745225839010127992
12041557,3953,2225,3222,3346,1745225839010127992
12042557,3880,2212,3211,3317,1745225839010127992
12043558,3811,2216,3226,3314,1745225839010127992
12044557,3753,2233,3264,3334,1745225839010127992
12045557,3720,2258,3315,3374,1745225839010127992
12046558,3709,2286,3363,3418,1745225839010127992
12047558,3721,2308,3402,3452,1745225839010127992
12048558,3732,2324,3427,3476,1745225839010127992
12049558,3745,2331,3429,3485,1745225839010127992
12050558,3750,2332,3428,3479,1745225839010127992
12051558,3752,2326,3421,3465,1745225839010127992
12052558,3748,2315,3409,3444,1745225839010127992
12053558,3738,2302,3392,3419,1745225839010127992
12054558,3723,2289,3374,3390,1745225839010127992
12055558,3704,2271,3350,3360,1745225839010127992
12056558,3675,2252,3317,3311,1745225839010127992
12057558,3641,2224,3270,3248,1745225839010127992
12058559,3591,2186,3212,3175,1745225839010127992
12059559,3544,2145,3152,3101,1745225839010127992
12060559,3478,2109,3096,3035,1745225839010127992
12061559,3417,2080,3045,2980,1745225839010127992
12062559,3361,2056,3008,2944,1745225839010127992
12063559,3317,2042,2987,2929,1745225839010127992
12064559,3285,2044,2985,2938,1745225839010127992
12065559,3270,2064,3001,2969,1745225839010127992
12066559,3273,2094,3025,3006,1745225839010127992
12067559,3284,2120,3044,3049,1745225839010127992
12068559,3297,2156,3056,3068,1745225839010127992
12069559,3310,2151,3058,3083,1745225839010127992
12070560,3316,2159,3051,3088,1745225839010127992
12071560,3317,2164,3038,3082,1745225839010127992
12072560,3307,2172,3022,3068,1745225839010127992
12073560,3291,2181,3001,3050,1745225839010127992
12074560,3272,2181,2977,3025,1745225839010127992
12075560,3256,2184,2968,2988,1745225839010127992
12076560,3242,2149,2913,2936,1745225839010127992
12077560,3220,2128,2865,2868,1745225839010127992
12078560,3186,2109,2814,2797,1745225839010127992
12079560,3142,2100,2761,2726,1745225839010127992
12080560,3086,2098,2715,2666,1745225839010127992
12081560,3022,2098,2678,2619,1745225839010127992
12082561,2958,2094,2652,2587,1745225839010127992
12083561,2903,2085,2641,2574,1745225839010127992
12084561,2866,2075,2644,2585,1745225839010127992
12085561,2848,2070,2664,2619,1745225839010127992
12086561,2846,2078,2694,2656,1745225839010127992
12087561,2856,2089,2723,2702,1745225839010127992
12088561,2869,2101,2743,2730,1745225839070911499
12089561,2889,2113,2750,2746,1745225839070911499
12090561,2903,2128,2748,2748,1745225839070911499
12091561,2910,2138,2738,2741,1745225839070911499
12092561,2914,2152,2724,2725,1745225839070911499
12093561,2913,2171,2707,2704,1745225839070911499
12094562,2907,2189,2691,2683,1745225839070911499
12095562,2894,2198,2670,2657,1745225839070911499
12096562,2872,2195,2642,2617,1745225839070911499
12097562,2841,2178,2605,2563,1745225839070911499
12098562,2798,2153,2562,2512,1745225839070911499
12099562,2748,2121,2524,2452,1745225839070911499
12100562,2696,2094,2480,2397,1745225839070911499
12101562,2644,2071,2440,2352,1745225839070911499
12102562,2601,2051,2406,2321,1745225839070911499
12103562,2568,2033,2388,2310,1745225839070911499
12104562,2556,2031,2385,2324,1745225839070911499
12105562,2553,2041,2397,2357,1745225839070911499
12106563,2559,2061,2417,2399,1745225839070911499
12107563,2574,2083,2438,2440,1745225839070911499
12108563,2591,2099,2456,2474,1745225839070911499
12109563,2604,2107,2467,2497,1745225839070911499
12110563,2610,2108,2476,2513,1745225839070911499
12111563,2610,2104,2478,2520,1745225839070911499
12112563,2605,2097,2477,2522,1745225839070911499
12113563,2595,2090,2472,2518,1745225839070911499
12114563,2579,2084,2461,2509,1745225839070911499
12115563,2559,2075,2444,2489,1745225839070911499
12116563,2545,2053,2414,2452,1745225839070911499
12117563,2516,2017,2372,2398,1745225839070911499
12118564,2486,1984,2326,2332,1745225839070911499
12119564,2449,1956,2280,2267,1745225839070911499
12120564,2404,1942,2235,2210,1745225839070911499
12121564,2360,1941,2197,2162,1745225839070911499
12122564,2317,1945,2165,2129,1745225839070911499
12123564,2280,1953,2160,2117,1745225839070911499
12124564,2253,1970,2166,2131,1745225839070911499
12125564,2240,1999,2188,2166,1745225839070911499
12126564,2244,2030,2224,2214,1745225839070911499
12127564,2258,2063,2256,2261,1745225839070911499
12128564,2275,2088,2286,2301,1745225839070911499
12129564,2288,2106,2308,2332,1745225839070911499
12130565,2294,2113,2341,2369,1745225839070911499
12131566,2310,2106,2329,2363,1745225839070911499
12132566,2300,2084,2328,2363,1745225839070911499
12133566,2303,2056,2317,2355,1745225839070911499
12134565,2315,2022,2301,2340,1745225839070911499
12135565,2320,1990,2282,2316,1745225839070911499
12136565,2315,1960,2251,2276,1745225839070911499
12137565,2302,1926,2205,2216,1745225839070911499
12138565,2278,1891,2156,2146,1745225839070911499
12139565,2242,1862,2105,2078,1745225839070911499
12140565,2197,1848,2059,2020,1745225839070911499
12141565,2150,1856,2019,1976,1745225839070911499
12142566,2100,1883,1990,1945,1745225839070911499
12143566,2056,1924,1973,1934,1745225839070911499
12144566,2024,1965,1972,1946,1745225839070911499
12145566,2011,2000,1987,1979,1745225839070911499
12146566,2017,2027,2017,2022,1745225839127435045
12147566,2038,2048,2053,2066,1745225839127435045
12148566,2072,2054,2091,2101,1745225839127435045
12149566,2105,2053,2128,2130,1745225839127435045
12150566,2133,2050,2157,2150,1745225839127435045
12151566,2155,2041,2182,2168,1745225839127435045
12152566,2168,2037,2200,2181,1745225839127435045
12153566,2171,2032,2212,2190,1745225839127435045
12154567,2165,2029,2218,2193,1745225839127435045
12155567,2155,2029,2212,2188,1745225839127435045
12156567,2137,2029,2193,2166,1745225839127435045
12157567,2107,2021,2160,2125,1745225839127435045
12158567,2066,2003,2117,2069,1745225839127435045
12159567,2014,1969,2070,2003,1745225839127435045
12160567,1965,1926,2024,1942,1745225839127435045
12161567,1920,1883,1986,1894,1745225839127435045
12162567,1880,1853,1955,1862,1745225839127435045
12163567,1849,1840,1939,1850,1745225839127435045
12164567,1833,1846,1939,1862,1745225839127435045
12165567,1830,1873,1954,1896,1745225839127435045
12166568,1845,1897,1978,1940,1745225839127435045
12167568,1872,1923,2001,1982,1745225839127435045
12168568,1904,1945,2019,2016,1745225839127435045
12169568,1932,1964,2030,2038,1745225839127435045
12170568,1954,1972,2035,2056,1745225839127435045
12171568,1971,1973,2037,2065,1745225839127435045
12172568,1984,1966,2034,2069,1745225839127435045
12173568,1991,1952,2033,2067,1745225839127435045
12174568,1994,1939,2028,2062,1745225839127435045
12175568,1989,1932,2016,2051,1745225839127435045
12176568,1977,1928,2008,2027,1745225839127435045
12177568,1955,1918,1978,1986,1745225839127435045
12178569,1923,1910,1937,1934,1745225839127435045
12179569,1880,1906,1895,1874,1745225839127435045
12180569,1832,1907,1866,1824,1745225839127435045
12181569,1785,1913,1821,1795,1745225839127435045
12182569,1742,1916,1796,1755,1745225839127435045
12183569,1709,1944,1786,1745,1745225839127435045
12184569,1687,1976,1795,1755,1745225839127435045
12185569,1672,2016,1817,1788,1745225839127435045
12186569,1692,2056,1854,1834,1745225839127435045
12187569,1715,2093,1889,1878,1745225839127435045
12188569,1748,2113,1914,1915,1745225839127435045
12189569,1781,2118,1933,1944,1745225839127435045
12190570,1808,2116,1945,1962,1745225839127435045
12191570,1834,2109,1947,1968,1745225839127435045
12192570,1853,2098,1944,1968,1745225839127435045
12193570,1868,2086,1937,1963,1745225839127435045
12194570,1877,2073,1929,1954,1745225839127435045
12195570,1878,2058,1917,1939,1745225839127435045
12196570,1873,2035,1899,1913,1745225839127435045
12197570,1856,2011,1873,1877,1745225839127435045
12198570,1821,1985,1837,1828,1745225839127435045
12199570,1776,1956,1788,1786,1745225839127435045
12200570,1724,1930,1746,1746,1745225839127435045
12201570,1674,1904,1712,1716,1745225839127435045
12202571,1634,1886,1685,1699,1745225839127435045
12203571,1606,1881,1674,1697,1745225839127435045
12204571,1597,1889,1682,1715,1745225839189402240
12205571,1604,1909,1714,1754,1745225839189402240
12206571,1627,1936,1766,1803,1745225839189402240
12207571,1655,1963,1823,1854,1745225839189402240
12208571,1683,1985,1875,1898,1745225839189402240
12209571,1705,2003,1915,1933,1745225839189402240
12210571,1723,2012,1942,1958,1745225839189402240
12211571,1734,2018,1958,1972,1745225839189402240
12212571,1742,2020,1968,1978,1745225839189402240
12213571,1749,2020,1971,1979,1745225839189402240
12214572,1755,2017,1969,1976,1745225839189402240
12215572,1760,2010,1962,1966,1745225839189402240
12216572,1759,1996,1947,1945,1745225839189402240
12217572,1753,1967,1920,1909,1745225839189402240
12218572,1731,1930,1884,1862,1745225839189402240
12219572,1699,1885,1844,1810,1745225839189402240
12220572,1660,1844,1807,1764,1745225839189402240
12221572,1620,1811,1775,1725,1745225839189402240
12222572,1586,1791,1750,1700,1745225839189402240
12223572,1560,1784,1738,1695,1745225839189402240
12224572,1547,1792,1740,1711,1745225839189402240
12225572,1549,1817,1757,1745,1745225839189402240
12226573,1568,1856,1783,1786,1745225839189402240
12227573,1599,1900,1807,1824,1745225839189402240
12228573,1634,1945,1827,1856,1745225839189402240
12229573,1665,1985,1842,1876,1745225839189402240
12230573,1691,2016,1851,1888,1745225839189402240
12231573,1711,2037,1856,1891,1745225839189402240
12232573,1728,2044,1857,1890,1745225839189402240
12233573,1742,2041,1854,1886,1745225839189402240
12234573,1754,2029,1851,1882,1745225839189402240
12235573,1764,2010,1845,1871,1745225839189402240
12236573,1766,1987,1833,1850,1745225839189402240
12237573,1758,1957,1810,1819,1745225839189402240
12238574,1737,1928,1782,1774,1745225839189402240
12239575,1700,1901,1750,1726,1745225839189402240
12240574,1655,1885,1721,1682,1745225839189402240
12241574,1606,1880,1697,1666,1745225839189402240
12242575,1556,1884,1690,1615,1745225839189402240
12243574,1526,1906,1676,1620,1745225839189402240
12244574,1504,1939,1684,1634,1745225839189402240
12245574,1494,1979,1706,1667,1745225839189402240
12246574,1503,2021,1733,1710,1745225839189402240
12247574,1525,2058,1762,1753,1745225839189402240
12248574,1542,2077,1787,1790,1745225839189402240
12249574,1581,2089,1802,1820,1745225839189402240
12250575,1616,2090,1816,1843,1745225839189402240
12251575,1649,2081,1825,1860,1745225839189402240
12252575,1678,2066,1830,1874,1745225839189402240
12253575,1705,2050,1833,1882,1745225839189402240
12254575,1728,2029,1833,1888,1745225839189402240
12255575,1748,2011,1827,1888,1745225839189402240
12256575,1761,1993,1813,1873,1745225839189402240
12257575,1761,1972,1788,1840,1745225839189402240
12258575,1747,1952,1754,1794,1745225839189402240
12259575,1717,1938,1716,1745,1745225839189402240
12260575,1678,1934,1683,1699,1745225839189402240
12261575,1634,1936,1657,1665,1745225839189402240
12262576,1590,1944,1642,1643,1745225839243770441
12263576,1553,1961,1641,1644,1745225839243770441
12264576,1532,1989,1654,1667,1745225839243770441
12265576,1520,2024,1684,1709,1745225839243770441
12266576,1525,2063,1720,1758,1745225839243770441
12267576,1541,2092,1755,1806,1745225839243770441
12268576,1573,2109,1786,1848,1745225839243770441
12269576,1608,2120,1810,1883,1745225839243770441
12270576,1641,2123,1829,1908,1745225839243770441
12271576,1673,2117,1841,1924,1745225839243770441
12272576,1702,2107,1850,1933,1745225839243770441
12273576,1728,2094,1856,1937,1745225839243770441
12274577,1749,2080,1861,1938,1745225839243770441
12275577,1762,2062,1862,1932,1745225839243770441
12276577,1769,2037,1851,1912,1745225839243770441
12277577,1765,2005,1835,1874,1745225839243770441
12278577,1748,1968,1806,1825,1745225839243770441
12279577,1722,1929,1774,1772,1745225839243770441
12280577,1691,1893,1742,1723,1745225839243770441
12281577,1658,1865,1714,1683,1745225839243770441
12282579,1627,1848,1692,1657,1745225839243770441
12283577,1603,1845,1682,1649,1745225839243770441
12284577,1588,1860,1685,1662,1745225839243770441
12285577,1585,1890,1705,1694,1745225839243770441
12286578,1600,1929,1736,1736,1745225839243770441
12287578,1620,1968,1770,1776,1745225839243770441
12288578,1644,1998,1799,1809,1745225839243770441
12289578,1669,2013,1823,1835,1745225839243770441
12290578,1691,2019,1840,1855,1745225839243770441
12291578,1708,2018,1852,1868,1745225839243770441
12292578,1725,2011,1861,1876,1745225839243770441
12293578,1735,2002,1867,1881,1745225839243770441
12294578,1740,1993,1872,1881,1745225839243770441
12295578,1741,1982,1870,1874,1745225839243770441
12296578,1737,1968,1860,1856,1745225839243770441
12297578,1731,1949,1842,1824,1745225839243770441
12298579,1711,1926,1817,1780,1745225839243770441
12299579,1683,1906,1787,1735,1745225839243770441
12300579,1650,1893,1760,1693,1745225839243770441
12301580,1614,1886,1734,1656,1745225839243770441
12302580,1581,1883,1722,1637,1745225839243770441
12303579,1560,1889,1722,1637,1745225839243770441
12304579,1544,1910,1742,1659,1745225839243770441
12305579,1541,1938,1770,1707,1745225839243770441
12306579,1554,1969,1808,1759,1745225839243770441
12307579,1581,2001,1846,1808,1745225839243770441
12308579,1613,2026,1877,1848,1745225839243770441
12309579,1645,2039,1899,1880,1745225839243770441
12310580,1676,2043,1910,1890,1745225839243770441
12311580,1707,2038,1918,1894,1745225839243770441
12312580,1733,2030,1921,1894,1745225839243770441
12313580,1756,2018,1920,1891,1745225839243770441
12314580,1774,2004,1917,1887,1745225839243770441
12315580,1788,1986,1914,1878,1745225839243770441
12316580,1796,1964,1905,1861,1745225839243770441
12317580,1793,1940,1888,1830,1745225839243770441
12318580,1780,1914,1863,1789,1745225839243770441
12319580,1760,1890,1833,1742,1745225839243770441
12320580,1732,1866,1801,1699,1745225839303929631
12321580,1702,1856,1774,1665,1745225839303929631
12322581,1674,1851,1754,1644,1745225839303929631
12323581,1650,1857,1745,1641,1745225839303929631
12324581,1637,1875,1752,1660,1745225839303929631
12325581,1638,1906,1772,1698,1745225839303929631
12326581,1656,1939,1802,1744,1745225839303929631
12327581,1684,1969,1831,1788,1745225839303929631
12328581,1717,1990,1857,1825,1745225839303929631
12329581,1748,2002,1877,1853,1745225839303929631
12330581,1783,2009,1891,1875,1745225839303929631
12331581,1797,2009,1902,1891,1745225839303929631
12332581,1810,2009,1912,1901,1745225839303929631
12333581,1817,2013,1922,1909,1745225839303929631
12334582,1819,2017,1930,1915,1745225839303929631
12335582,1818,2027,1933,1916,1745225839303929631
12336582,1812,2035,1927,1902,1745225839303929631
12337582,1800,2036,1908,1874,1745225839303929631
12338582,1782,2026,1883,1834,1745225839303929631
12339582,1755,2006,1854,1792,1745225839303929631
12340582,1725,1986,1827,1753,1745225839303929631
12341582,1693,1965,1804,1721,1745225839303929631
12342582,1664,1949,1789,1702,1745225839303929631
12343582,1642,1944,1784,1701,1745225839303929631
12344582,1633,1948,1791,1720,1745225839303929631
12345582,1637,1964,1811,1754,1745225839303929631
12346583,1658,1988,1839,1796,1745225839303929631
12347583,1688,2010,1868,1839,1745225839303929631
12348583,1721,2025,1892,1877,1745225839303929631
12349583,1753,2033,1910,1906,1745225839303929631
12350583,1780,2034,1922,1926,1745225839303929631
12351583,1802,2032,1929,1939,1745225839303929631
12352583,1821,2025,1932,1949,1745225839303929631
12353583,1836,2018,1930,1954,1745225839303929631
12354583,1844,2011,1923,1954,1745225839303929631
12355583,1850,2002,1914,1948,1745225839303929631
12356585,1849,1990,1898,1929,1745225839303929631
12357583,1843,1970,1874,1893,1745225839303929631
12358584,1824,1941,1844,1858,1745225839303929631
12359584,1781,1907,1814,1805,1745225839303929631
12360584,1759,1878,1787,1752,1745225839303929631
12361584,1724,1853,1768,1715,1745225839303929631
12362584,1692,1837,1754,1692,1745225839303929631
12363584,1670,1830,1749,1688,1745225839303929631
12364584,1660,1833,1753,1701,1745225839303929631
12365584,1667,1846,1778,1741,1745225839303929631
12366584,1690,1867,1803,1788,1745225839303929631
12367584,1723,1888,1830,1834,1745225839303929631
12368584,1756,1906,1851,1874,1745225839303929631
12369584,1786,1922,1866,1900,1745225839303929631
12370585,1810,1936,1876,1926,1745225839303929631
12371585,1830,1946,1883,1941,1745225839303929631
12372585,1844,1955,1887,1949,1745225839303929631
12373585,1857,1960,1890,1955,1745225839303929631
12374585,1865,1967,1892,1958,1745225839303929631
12375585,1870,1978,1894,1954,1745225839303929631
12376585,1872,1989,1893,1940,1745225839303929631
12377585,1859,1998,1883,1910,1745225839303929631
12378585,1834,2000,1866,1869,1745225839360592864
12379585,1798,1994,1844,1826,1745225839360592864
12380585,1758,1989,1824,1787,1745225839360592864
12381585,1719,1988,1808,1755,1745225839360592864
12382586,1688,1982,1795,1733,1745225839360592864
12383586,1666,1977,1788,1730,1745225839360592864
12384586,1659,1978,1797,1748,1745225839360592864
12385586,1665,1986,1818,1786,1745225839360592864
12386586,1685,1997,1846,1832,1745225839360592864
12387586,1715,2006,1874,1875,1745225839360592864
12388586,1749,2012,1898,1913,1745225839360592864
12389586,1782,2015,1914,1939,1745225839360592864
12390586,1810,2017,1925,1958,1745225839360592864
12391586,1828,2021,1934,1968,1745225839360592864
12392586,1842,2025,1940,1972,1745225839360592864
12393586,1853,2029,1941,1968,1745225839360592864
12394587,1865,2036,1940,1957,1745225839360592864
12395587,1869,2044,1937,1941,1745225839360592864
12396587,1870,2051,1928,1914,1745225839360592864
12397587,1861,2044,1908,1875,1745225839360592864
12398587,1842,2034,1878,1828,1745225839360592864
12399587,1811,2021,1845,1779,1745225839360592864
12400587,1777,2012,1808,1736,1745225839360592864
12401587,1739,2009,1789,1702,1745225839360592864
12402587,1703,2014,1772,1683,1745225839360592864
12403587,1675,2027,1769,1682,1745225839360592864
12404587,1658,2052,1777,1704,1745225839360592864
12405587,1657,2083,1810,1747,1745225839360592864
12406588,1670,2113,1846,1798,1745225839360592864
12407588,1697,2138,1884,1849,1745225839360592864
12408588,1728,2152,1915,1893,1745225839360592864
12409588,1756,2155,1939,1928,1745225839360592864
12410588,1781,2153,1955,1951,1745225839360592864
12411588,1800,2146,1965,1965,1745225839360592864
12412588,1812,2139,1972,1972,1745225839360592864
12413588,1819,2133,1976,1974,1745225839360592864
12414588,1825,2129,1974,1971,1745225839360592864
12415589,1832,2122,1969,1964,1745225839360592864
12416588,1829,2113,1965,1945,1745225839360592864
12417588,1825,2097,1949,1915,1745225839360592864
12418589,1805,2074,1928,1869,1745225839360592864
12419589,1777,2030,1899,1828,1745225839360592864
12420589,1745,2020,1874,1791,1745225839360592864
12421589,1709,1999,1854,1764,1745225839360592864
12422589,1676,1986,1843,1751,1745225839360592864
12423589,1651,1980,1845,1757,1745225839360592864
12424589,1638,1987,1859,1784,1745225839360592864
12425589,1637,2002,1885,1828,1745225839360592864
12426589,1666,2022,1920,1881,1745225839360592864
12427589,1699,2044,1952,1932,1745225839360592864
12428589,1736,2064,1978,1973,1745225839360592864
12429589,1770,2075,1997,2004,1745225839360592864
12430590,1798,2081,2009,2022,1745225839360592864
12431590,1821,2083,2016,2034,1745225839360592864
12432590,1841,2081,2019,2038,1745225839360592864
12433590,1853,2074,2023,2041,1745225839360592864
12434590,1864,2062,2027,2041,1745225839360592864
12435590,1872,2043,2032,2038,1745225839360592864
12436590,1875,2017,2029,2026,1745225839422572037
12437590,1869,1985,2017,2000,1745225839422572037
12438590,1850,1950,1995,1962,1745225839422572037
12439590,1819,1915,1969,1919,1745225839422572037
12440590,1783,1889,1945,1878,1745225839422572037
12441590,1750,1873,1923,1840,1745225839422572037
12442591,1728,1868,1907,1812,1745225839422572037
12443591,1718,1878,1900,1802,1745225839422572037
12444591,1718,1901,1904,1811,1745225839422572037
12445591,1730,1940,1921,1838,1745225839422572037
12446591,1752,1989,1944,1873,1745225839422572037
12447591,1780,2044,1966,1907,1745225839422572037
12448591,1808,2093,1985,1937,1745225839422572037
12449591,1836,2129,1998,1959,1745225839422572037
12450591,1858,2152,2006,1979,1745225839422572037
12451591,1877,2161,2012,1993,1745225839422572037
12452591,1890,2164,2015,2003,1745225839422572037
12453591,1900,2158,2016,2009,1745225839422572037
12454592,1907,2155,2018,2014,1745225839422572037
12455592,1910,2144,2017,2014,1745225839422572037
12456592,1909,2129,2009,2004,1745225839422572037
12457592,1903,2106,1992,1980,1745225839422572037
12458592,1887,2075,1968,1945,1745225839422572037
12459592,1862,2038,1946,1904,1745225839422572037
12460592,1832,2003,1913,1868,1745225839422572037
12461592,1801,1972,1889,1840,1745225839422572037
12462592,1774,1950,1873,1823,1745225839422572037
12463592,1755,1938,1866,1825,1745225839422572037
12464592,1749,1939,1875,1846,1745225839422572037
12465592,1757,1956,1896,1885,1745225839422572037
12466593,1782,1982,1922,1933,1745225839422572037
12467593,1815,2013,1948,1978,1745225839422572037
12468593,1850,2040,1970,2014,1745225839422572037
12469593,1882,2061,1987,2041,1745225839422572037
12470593,1909,2073,2000,2058,1745225839422572037
12471593,1933,2073,2008,2067,1745225839422572037
12472594,1950,2065,2011,2072,1745225839422572037
12473593,1963,2054,2011,2074,1745225839422572037
12474594,1972,2037,2012,2076,1745225839422572037
12475596,1976,2021,2010,2076,1745225839422572037
12476593,1972,2004,2006,2061,1745225839422572037
12477593,1964,1992,1988,2030,1745225839422572037
12478594,1942,1982,1964,1986,1745225839422572037
12479594,1910,1977,1932,1934,1745225839422572037
12480594,1873,1975,1899,1885,1745225839422572037
12481594,1832,1971,1875,1844,1745225839422572037
12482594,1804,1975,1856,1818,1745225839422572037
12483594,1780,1977,1851,1809,1745225839422572037
12484594,1766,1989,1859,1824,1745225839422572037
12485594,1770,2010,1880,1859,1745225839422572037
12486594,1788,2036,1906,1905,1745225839422572037
12487594,1820,2065,1933,1948,1745225839422572037
12488594,1857,2086,1957,1985,1745225839422572037
12489594,1893,2103,1973,2011,1745225839422572037
12490595,1925,2116,1986,2029,1745225839422572037
12491595,1948,2124,1992,2042,1745225839422572037
12492595,1965,2130,1995,2052,1745225839422572037
