timestamp,emg0,emg1,emg2,emg3,pkt_time_ns
5551210,4095,2554,1566,1389,1745204718512240556
5552208,4089,2960,1209,1077,1745204718512240556
5553208,4088,3270,941,845,1745204718512240556
5554208,4088,3499,955,669,1745204718512240556
5555208,4089,3658,1617,939,1745204718512240556
5556208,4088,3468,2269,1700,1745204718512240556
5557208,4086,2539,2748,2308,1745204718512240556
5558208,4086,1876,3114,2765,1745204718512240556
5559208,4088,1433,3388,3116,1745204718512240556
5560208,4088,1106,3583,3375,1745204718512240556
5561209,4087,972,3385,3073,1745204718512240556
5562209,4086,1387,2509,2261,1745204718512240556
5563209,4087,2065,1844,1679,1745204718512240556
5564209,4088,2593,1404,1289,1745204718512240556
5565209,4088,2992,1086,1004,1745204718512240556
5566209,4088,3293,858,790,1745204718512240556
5567209,4088,3517,1140,721,1745204718512240556
5568209,4088,3619,1873,1336,1745204718512240556
5569209,4085,2901,2461,2025,1745204718512240556
5570209,4084,2114,2892,2559,1745204718512240556
5571209,4083,1587,3223,2955,1745204718512240556
5572209,4083,1225,3469,3261,1745204718512240556
5573210,4083,1045,3384,3080,1745204718512240556
5574210,4082,1414,2559,2296,1745204718512240556
5575210,4082,2076,1874,1700,1745204718512240556
5576210,4086,2606,1422,1304,1745204718512240556
5577210,4082,3002,1098,1014,1745204718512240556
5578210,4082,3299,857,800,1745204718512240556
5579210,4083,3517,675,635,1745204718512240556
5580210,4081,3668,535,511,1745204718512240556
5581210,4081,3782,579,418,1745204718512240556
5582210,4082,3865,1103,339,1745204718512240556
5583210,4082,3921,1831,277,1745204718512240556
5584210,4083,3962,2413,229,1745204718512240556
5585211,4082,3990,2850,193,1745204718512240556
5586211,4081,4011,3186,162,1745204718512240556
5587211,4081,4026,3436,266,1745204718512240556
5588211,4081,4036,3616,834,1745204718512240556
5589211,4082,4044,3750,1488,1745204718512240556
5590211,4082,4050,3845,1628,1745204718512240556
5591211,4081,4055,3913,1261,1745204718512240556
5592211,4081,4059,3709,952,1745204718512240556
5593211,4081,4060,2800,731,1745204718512240556
5594211,4074,4061,2049,569,1745204718512240556
5595211,4058,4061,1544,456,1745204718512240556
5596211,4039,4062,1197,361,1745204718512240556
5597212,4019,4063,934,290,1745204718512240556
5598212,3997,4062,857,236,1745204718512240556
5599212,3976,4064,1173,195,1745204718512240556
5600212,3955,4064,1797,162,1745204718512240556
5601212,3937,4063,2403,138,1745204718512240556
5602212,3919,4064,2848,118,1745204718512240556
5603212,3901,4064,3188,105,1745204718512240556
5604212,3884,4064,3442,413,1745204718512240556
5605212,3867,4063,3619,1147,1745204718512240556
5606212,3850,4064,3755,1682,1745204718512240556
5607212,3834,4065,3850,1621,1745204718512240556
5608212,3818,4065,3757,1216,1745204718512240556
5609213,3802,4065,2886,914,1745204718567544635
5610213,3785,4064,2098,713,1745204718567544635
5611213,3770,4064,1578,555,1745204718567544635
5612213,3755,4064,1221,446,1745204718567544635
5613213,3738,4062,952,355,1745204718567544635
5614213,3723,4061,749,285,1745204718567544635
5615213,3708,4061,593,233,1745204718567544635
5616214,3690,4051,481,192,1745204718567544635
5617213,3677,4061,540,161,1745204718567544635
5618214,3665,4066,957,136,1745204718567544635
5619214,3648,4060,1601,116,1745204718567544635
5620213,3633,4059,2229,101,1745204718567544635
5621214,3627,4058,2707,90,1745204718567544635
5622214,3603,4059,3078,83,1745204718567544635
5623214,3588,4058,3357,75,1745204718567544635
5624214,3583,4058,3565,98,1745204718567544635
5625214,3570,4060,3707,446,1745204718567544635
5626214,3557,4060,3818,997,1745204718567544635
5627214,3545,4061,3893,1305,1745204718567544635
5628214,3530,4063,3950,1145,1745204718567544635
5629214,3515,4063,3856,852,1745204718567544635
5630214,3502,4063,3128,651,1745204718567544635
5631214,3488,4063,2272,511,1745204718567544635
5632214,3476,4060,1699,403,1745204718567544635
5633215,3465,4061,1307,317,1745204718567544635
5634215,3451,4062,1017,255,1745204718567544635
5635215,3438,4060,846,208,1745204718567544635
5636215,3425,4059,971,168,1745204718567544635
5637215,3413,4060,1396,144,1745204718567544635
5638215,3400,4059,1996,122,1745204718567544635
5639215,3388,4057,2552,106,1745204718567544635
5640215,3377,4057,2960,94,1745204718567544635
5641215,3362,4056,3273,85,1745204718567544635
5642215,3350,4057,3505,82,1745204718567544635
5643215,3340,4056,3666,243,1745204718567544635
5644215,3328,4056,3789,555,1745204718567544635
5645216,3316,4057,3876,758,1745204718567544635
5646216,3305,4057,3936,662,1745204718567544635
5647216,3292,4058,3709,505,1745204718567544635
5648216,3282,4057,3130,387,1745204718567544635
5649216,3272,4057,2481,302,1745204718567544635
5650216,3260,4057,1934,239,1745204718567544635
5651216,3249,4057,1566,193,1745204718567544635
5652216,3238,4057,1406,158,1745204718567544635
5653216,3227,4056,1433,133,1745204718567544635
5654216,3217,4056,1635,113,1745204718567544635
5655216,3206,4056,1971,98,1745204718567544635
5656216,3195,4056,2380,86,1745204718567544635
5657217,3185,4054,2803,194,1745204718567544635
5658217,3173,4054,3165,587,1745204718567544635
5659217,3164,4056,3430,1013,1745204718567544635
5660217,3153,4056,3482,1124,1745204718567544635
5661217,3144,4057,3017,907,1745204718567544635
5662217,3134,4058,2229,683,1745204718567544635
5663217,3124,4058,1654,523,1745204718567544635
5664217,3115,4057,1270,415,1745204718567544635
5665217,3105,4057,989,326,1745204718567544635
5666217,3094,4056,779,261,1745204718567544635
5667217,3085,4053,617,211,1745204718626403107
5668217,3077,4054,500,174,1745204718626403107
5669218,3065,4054,408,145,1745204718626403107
5670218,3056,4053,529,123,1745204718626403107
5671218,3048,4052,953,107,1745204718626403107
5672218,3038,4052,1568,208,1745204718626403107
5673218,3029,4051,2204,757,1745204718626403107
5674218,3022,4048,2685,1462,1745204718626403107
5675218,3012,4039,3038,1795,1745204718626403107
5676218,3003,4021,2803,1665,1745204718626403107
5677218,2994,4001,2053,1280,1745204718626403107
5678220,2987,3980,1535,969,1745204718626403107
5679218,2982,3956,1176,750,1745204718626403107
5680218,2970,3935,915,582,1745204718626403107
5681219,2962,3915,720,467,1745204718626403107
5682219,2953,3896,570,370,1745204718626403107
5683219,2945,3876,776,558,1745204718626403107
5684219,2937,3859,1509,1378,1745204718626403107
5685219,2928,3844,2162,2030,1745204718626403107
5686219,2922,3832,2660,2546,1745204718626403107
5687219,2913,3817,2908,2878,1745204718626403107
5688219,2906,3803,2356,2702,1745204718626403107
5689219,2899,3786,1717,2153,1745204718626403107
5690219,2891,3770,1307,1594,1745204718626403107
5691219,2884,3750,1008,1226,1745204718626403107
5692219,2876,3732,788,954,1745204718626403107
5693220,2868,3713,622,751,1745204718626403107
5694220,2860,3698,504,595,1745204718626403107
5695220,2852,3681,603,605,1745204718626403107
5696220,2846,3666,1315,1340,1745204718626403107
5697220,2839,3652,2006,2016,1745204718626403107
5698220,2833,3640,2547,2546,1745204718626403107
5699220,2826,3628,2949,2944,1745204718626403107
5700220,2819,3616,3130,3174,1745204718626403107
5701220,2813,3604,2519,2876,1745204718626403107
5702220,2806,3589,1833,2255,1745204718626403107
5703220,2800,3581,1390,1671,1745204718626403107
5704220,2793,3565,1073,1284,1745204718626403107
5705221,2786,3550,838,1000,1745204718626403107
5706221,2779,3533,661,787,1745204718626403107
5707221,2772,3520,701,748,1745204718626403107
5708221,2765,3508,1374,1451,1745204718626403107
5709221,2761,3496,2061,2112,1745204718626403107
5710221,2753,3483,2582,2616,1745204718626403107
5711221,2748,3473,2984,3004,1745204718626403107
5712221,2741,3462,3287,3297,1745204718626403107
5713221,2734,3453,3509,3490,1745204718626403107
5714221,2729,3442,3214,3212,1745204718626403107
5715221,2724,3429,2364,2553,1745204718626403107
5716221,2718,3426,1745,1885,1745204718626403107
5717222,2714,3406,1334,1451,1745204718626403107
5718222,2707,3397,1329,1691,1745204718626403107
5719222,2700,3204,1961,2356,1745204718626403107
5720222,2696,2393,2545,2827,1745204718626403107
5721222,2690,1793,2966,3182,1745204718626403107
5722222,2683,1381,3282,3441,1745204718626403107
5723222,2616,1075,3516,3617,1745204718626403107
5724222,2239,844,3670,3750,1745204718626403107
5725222,1685,672,3790,3846,1745204718684296953
5726222,1306,532,3874,3915,1745204718684296953
5727222,1024,434,3937,3963,1745204718684296953
5728222,810,347,3980,3997,1745204718684296953
5729223,644,277,4011,4024,1745204718684296953
5730223,514,225,4031,4041,1745204718684296953
5731223,420,184,4044,4053,1745204718684296953
5732223,339,149,4057,4062,1745204718684296953
5733224,273,124,4064,4067,1745204718684296953
5734223,222,104,4069,4072,1745204718684296953
5735223,183,88,4082,4078,1745204718684296953
5736223,150,74,4068,4079,1745204718684296953
5737224,125,66,4078,4090,1745204718684296953
5738223,103,56,4080,4082,1745204718684296953
5739223,89,51,4081,4083,1745204718684296953
5740223,78,46,4082,4083,1745204718684296953
5741224,68,42,4082,4084,1745204718684296953
5742224,60,40,4083,4085,1745204718684296953
5743224,51,38,4082,4088,1745204718684296953
5744224,49,35,4084,4086,1745204718684296953
5745224,44,34,4085,4085,1745204718684296953
5746224,42,31,4084,4085,1745204718684296953
5747224,40,32,4084,4088,1745204718684296953
5748224,37,30,4084,4088,1745204718684296953
5749224,35,29,4085,4085,1745204718684296953
5750224,34,28,4085,4089,1745204718684296953
5751224,32,27,4089,4086,1745204718684296953
5752224,31,27,4084,4088,1745204718684296953
5753225,30,25,4085,4088,1745204718684296953
5754225,29,28,4084,4088,1745204718684296953
5755225,29,27,4085,4088,1745204718684296953
5756225,29,27,4025,4088,1745204718684296953
5757225,28,26,3685,4089,1745204718684296953
5758225,28,27,3165,4088,1745204718684296953
5759225,27,26,2561,4088,1745204718684296953
5760225,27,25,1966,4086,1745204718684296953
5761225,27,26,1500,4088,1745204718684296953
5762225,33,25,1163,4088,1745204718684296953
5763225,27,24,912,4088,1745204718684296953
5764225,25,25,721,4086,1745204718684296953
5765226,27,25,573,4088,1745204718684296953
5766226,27,25,466,4088,1745204718684296953
5767227,21,24,372,4088,1745204718684296953
5768226,33,24,299,4086,1745204718684296953
5769227,26,24,241,4088,1745204718684296953
5770226,25,24,196,4088,1745204718684296953
5771227,26,25,161,4089,1745204718684296953
5772226,26,24,132,4089,1745204718684296953
5773226,26,24,110,4088,1745204718684296953
5774226,26,24,93,4088,1745204718684296953
5775226,25,23,81,4088,1745204718684296953
5776226,25,24,68,4089,1745204718684296953
5777227,26,24,59,4088,1745204718684296953
5778227,26,24,53,4088,1745204718684296953
5779227,25,24,47,4089,1745204718684296953
5780227,26,24,43,4088,1745204718684296953
5781227,26,24,40,4087,1745204718684296953
5782227,26,24,37,4088,1745204718684296953
5783227,25,24,34,4087,1745204718742714493
5784227,25,25,33,4088,1745204718742714493
5785227,26,25,32,4088,1745204718742714493
5786227,25,24,29,4087,1745204718742714493
5787227,25,24,29,4089,1745204718742714493
5788227,26,24,29,4087,1745204718742714493
5789228,25,24,26,4089,1745204718742714493
5790228,25,24,27,4087,1745204718742714493
5791228,26,24,26,4088,1745204718742714493
5792228,25,24,26,4088,1745204718742714493
5793228,25,22,26,4089,1745204718742714493
5794228,24,22,25,4087,1745204718742714493
5795228,24,21,25,4088,1745204718742714493
5796229,24,22,24,4088,1745204718742714493
5797228,24,23,25,4090,1745204718742714493
5798228,25,24,25,4089,1745204718742714493
5799228,25,23,25,4088,1745204718742714493
5800228,25,22,26,4088,1745204718742714493
5801229,25,22,25,4085,1745204718742714493
5802229,27,23,24,4089,1745204718742714493
5803229,24,24,24,4088,1745204718742714493
5804229,26,24,25,4088,1745204718742714493
5805229,25,23,24,4087,1745204718742714493
5806229,25,23,25,4089,1745204718742714493
5807229,25,24,24,4090,1745204718742714493
5808229,25,24,24,4087,1745204718742714493
5809229,25,24,24,4089,1745204718742714493
5810229,25,24,24,4089,1745204718742714493
5811229,25,22,25,4088,1745204718742714493
5812229,25,24,25,4088,1745204718742714493
5813230,25,22,24,4086,1745204718742714493
5814230,25,24,22,4088,1745204718742714493
5815230,26,22,24,4088,1745204718742714493
5816230,25,13,24,4088,1745204718742714493
5817230,25,24,24,4088,1745204718742714493
5818230,26,24,22,4088,1745204718742714493
5819230,25,24,24,4089,1745204718742714493
5820230,24,24,23,4088,1745204718742714493
5821230,24,22,23,4088,1745204718742714493
5822230,25,23,24,4088,1745204718742714493
5823230,25,22,24,4088,1745204718742714493
5824230,25,24,24,4089,1745204718742714493
5825231,25,22,22,4090,1745204718742714493
5826231,24,22,22,4088,1745204718742714493
5827231,24,24,23,4088,1745204718742714493
5828231,24,23,24,4088,1745204718742714493
5829231,25,22,22,4088,1745204718742714493
5830231,25,22,24,4072,1745204718742714493
5831231,25,24,24,3884,1745204718742714493
5832231,24,22,22,3548,1745204718742714493
5833231,25,22,22,3118,1745204718742714493
5834231,24,22,24,2656,1745204718742714493
5835231,26,22,22,2208,1745204718742714493
5836231,26,22,24,1762,1745204718742714493
5837232,24,22,22,1369,1745204718742714493
5838232,25,21,22,1070,1745204718742714493
5839232,25,24,20,846,1745204718742714493
5840232,25,22,22,673,1745204718742714493
5841232,25,22,24,537,1745204718810721944
5842232,26,26,23,440,1745204718810721944
5843232,25,22,23,354,1745204718810721944
5844232,25,23,22,285,1745204718810721944
5845232,25,23,23,233,1745204718810721944
5846232,24,22,24,189,1745204718810721944
5847232,25,22,22,156,1745204718810721944
5848232,25,21,23,129,1745204718810721944
5849233,25,22,22,109,1745204718810721944
5850233,25,22,22,91,1745204718810721944
5851233,24,22,22,80,1745204718810721944
5852233,25,22,22,67,1745204718810721944
5853233,25,30,23,59,1745204718810721944
5854233,24,24,21,52,1745204718810721944
5855233,24,21,21,46,1745204718810721944
5856233,24,22,22,43,1745204718810721944
5857233,25,24,22,40,1745204718810721944
5858233,24,23,22,36,1745204718810721944
5859233,25,22,21,35,1745204718810721944
5860233,25,22,24,33,1745204718810721944
5861234,25,23,22,31,1745204718810721944
5862234,25,24,22,32,1745204718810721944
5863234,24,23,22,29,1745204718810721944
5864234,25,23,21,29,1745204718810721944
5865234,25,22,45,27,1745204718810721944
5866234,24,23,129,27,1745204718810721944
5867234,25,24,254,27,1745204718810721944
5868234,24,23,390,27,1745204718810721944
5869234,24,24,518,26,1745204718810721944
5870234,24,23,642,25,1745204718810721944
5871234,24,23,748,25,1745204718810721944
5872234,25,22,835,25,1745204718810721944
5873235,25,22,904,26,1745204718810721944
5874235,23,24,948,25,1745204718810721944
5875235,24,24,975,26,1745204718810721944
5876235,25,22,996,24,1745204718810721944
5877235,25,22,1014,24,1745204718810721944
5878235,25,22,1028,24,1745204718810721944
5879235,25,22,1029,25,1745204718810721944
5880235,24,22,1028,25,1745204718810721944
5881235,24,23,1036,24,1745204718810721944
5882235,24,24,1060,24,1745204718810721944
5883235,24,22,1104,24,1745204718810721944
5884235,25,22,1168,24,1745204718810721944
5885236,24,22,1253,24,1745204718810721944
5886236,25,22,1357,25,1745204718810721944
5887236,24,22,1484,24,1745204718810721944
5888236,27,22,1625,24,1745204718810721944
5889236,24,22,1801,24,1745204718810721944
5890236,24,22,1992,24,1745204718810721944
5891236,25,22,2184,24,1745204718810721944
5892236,24,24,2352,23,1745204718810721944
5893236,23,24,2488,24,1745204718810721944
5894236,25,40,2577,23,1745204718810721944
5895236,25,209,2630,22,1745204718810721944
5896236,68,536,2641,24,1745204718810721944
5897237,204,1003,2618,23,1745204718810721944
5898237,411,1577,2594,24,1745204718810721944
5899237,652,2181,2586,24,1745204718858471456
5900237,926,2651,2606,22,1745204718858471456
5901237,1210,3020,2661,21,1745204718858471456
5902237,1486,3305,2736,24,1745204718858471456
5903237,1736,3518,2824,24,1745204718858471456
5904237,1980,3666,2934,24,1745204718858471456
5905237,2219,3783,3040,24,1745204718858471456
5906237,2456,3867,3142,24,1745204718858471456
5907237,2690,3928,3233,22,1745204718858471456
5908237,2945,3972,3314,24,1745204718858471456
5909238,3218,4002,3386,24,1745204718858471456
5910238,3456,4043,3446,24,1745204718858471456
5911239,3625,4043,3495,25,1745204718858471456
5912238,3756,4052,3530,24,1745204718858471456
5913238,3849,4061,3548,24,1745204718858471456
5914238,3916,4068,3556,24,1745204718858471456
5915238,3964,4072,3558,24,1745204718858471456
5916238,3998,4076,3553,24,1745204718858471456
5917238,4023,4077,3550,24,1745204718858471456
5918238,4041,4080,3537,24,1745204718858471456
5919238,4053,4080,3515,24,1745204718858471456
5920238,4062,4082,3491,24,1745204718858471456
5921239,4068,4082,3474,24,1745204718858471456
5922239,4072,4084,3469,24,1745204718858471456
5923239,4075,4082,3472,24,1745204718858471456
5924239,4078,4084,3508,24,1745204718858471456
5925239,4080,4085,3548,24,1745204718858471456
5926239,4082,4088,3583,24,1745204718858471456
5927239,4083,4085,3618,21,1745204718858471456
5928239,4081,4084,3656,24,1745204718858471456
5929239,4083,4084,3695,24,1745204718858471456
5930239,4084,4085,3732,24,1745204718858471456
5931239,4084,4085,3762,24,1745204718858471456
5932239,4085,4084,3781,24,1745204718858471456
5933240,4085,4085,3792,24,1745204718858471456
5934240,4084,4088,3793,25,1745204718858471456
5935240,4085,4086,3792,25,1745204718858471456
5936240,4086,4086,3788,25,1745204718858471456
5937240,4084,4085,3784,24,1745204718858471456
5938240,4086,4086,3776,22,1745204718858471456
5939240,4086,4086,3748,24,1745204718858471456
5940240,4085,4086,3717,25,1745204718858471456
5941240,4086,4088,3688,24,1745204718858471456
5942240,4085,4088,3672,24,1745204718858471456
5943240,4086,4088,3664,24,1745204718858471456
5944240,4086,4086,3676,24,1745204718858471456
5945241,4088,4086,3703,24,1745204718858471456
5946241,4087,4087,3739,25,1745204718858471456
5947241,4093,4086,3774,25,1745204718858471456
5948241,4088,4088,3805,24,1745204718858471456
5949241,4086,4088,3833,24,1745204718858471456
5950241,4086,4085,3857,28,1745204718858471456
5951241,4088,4086,3872,25,1745204718858471456
5952241,4086,4087,3878,25,1745204718858471456
5953241,4086,4086,3874,25,1745204718858471456
5954241,4085,4088,3868,24,1745204718858471456
5955241,4085,4087,3867,24,1745204718858471456
5956241,4086,4085,3876,24,1745204718858471456
5957242,4086,4085,3892,25,1745204718920084852
5958242,4086,4085,3898,24,1745204718920084852
5959242,4088,4088,3891,25,1745204718920084852
5960242,4089,4086,3874,24,1745204718920084852
5961242,4086,4086,3848,24,1745204718920084852
5962242,4086,4087,3819,24,1745204718920084852
5963242,4086,4086,3796,24,1745204718920084852
5964242,4086,4087,3780,25,1745204718920084852
5965242,4086,4087,3786,24,1745204718920084852
5966242,4086,4087,3805,24,1745204718920084852
5967242,4086,4088,3827,22,1745204718920084852
5968242,4088,4086,3858,25,1745204718920084852
5969243,4089,4086,3907,24,1745204718920084852
5970243,4086,4086,3954,22,1745204718920084852
5971243,4087,4075,3997,25,1745204718920084852
5972243,4088,4088,4021,25,1745204718920084852
5973243,4088,4086,4039,24,1745204718920084852
5974243,4085,4086,4043,24,1745204718920084852
5975243,4086,4095,4049,24,1745204718920084852
5976243,4087,4095,4061,25,1745204718920084852
5977243,4084,4088,4067,25,1745204718920084852
5978243,4088,4086,4073,24,1745204718920084852
5979243,4088,4088,4076,24,1745204718920084852
5980243,4088,4086,4077,24,1745204718920084852
5981244,4086,4088,4072,24,1745204718920084852
5982244,4086,4087,4057,25,1745204718920084852
5983244,4086,4085,4043,24,1745204718920084852
5984244,4086,4086,4034,24,1745204718920084852
5985244,4088,4088,4034,24,1745204718920084852
5986244,4086,4085,4044,24,1745204718920084852
5987244,4087,4085,4056,25,1745204718920084852
5988244,4086,4088,4065,25,1745204718920084852
5989244,4085,4088,4072,24,1745204718920084852
5990244,4085,4086,4075,24,1745204718920084852
5991244,4086,4086,4078,24,1745204718920084852
5992244,4088,4085,4081,20,1745204718920084852
5993245,4085,4088,4080,25,1745204718920084852
5994245,4086,4086,4080,25,1745204718920084852
5995245,4085,4087,4082,25,1745204718920084852
5996245,4088,4085,4072,24,1745204718920084852
5997245,4088,4086,4049,24,1745204718920084852
5998245,4085,4086,4009,24,1745204718920084852
5999245,4086,4086,3960,25,1745204718920084852
6000245,4085,4085,3920,25,1745204718920084852
6001245,4085,4086,3896,24,1745204718920084852
6002245,4087,4085,3894,25,1745204718920084852
6003245,4086,4084,3910,24,1745204718920084852
6004245,4085,4085,3942,24,1745204718920084852
6005246,4085,4086,3982,25,1745204718920084852
6006246,4085,4086,4018,24,1745204718920084852
6007246,4085,4084,4043,25,1745204718920084852
6008246,4085,4086,4050,25,1745204718920084852
6009246,4085,4085,4036,25,1745204718920084852
6010247,4089,4085,4002,25,1745204718920084852
6011246,4085,4085,3950,24,1745204718920084852
6012246,4084,4084,3892,26,1745204718920084852
6013246,4086,4086,3838,26,1745204718920084852
6014246,4086,4086,3788,25,1745204718920084852
6015246,4086,4086,3744,25,1745204718975586428
6016246,4085,4085,3705,25,1745204718975586428
6017247,4086,4086,3673,25,1745204718975586428
6018247,4085,4086,3638,25,1745204718975586428
6019247,4085,4087,3603,25,1745204718975586428
6020247,4084,4085,3571,25,1745204718975586428
6021247,4086,4086,3530,25,1745204718975586428
6022247,4085,4085,3483,26,1745204718975586428
6023247,4086,4085,3440,27,1745204718975586428
6024247,4085,4087,3412,46,1745204718975586428
6025247,4085,4089,3404,101,1745204718975586428
6026247,4087,4078,3403,190,1745204718975586428
6027247,4080,4085,3404,294,1745204718975586428
6028247,4083,4085,3415,419,1745204718975586428
6029248,4085,4086,3430,545,1745204718975586428
6030248,4083,4081,3443,673,1745204718975586428
6031248,4095,4084,3452,796,1745204718975586428
6032248,4084,4083,3438,897,1745204718975586428
6033248,4085,4083,3419,980,1745204718975586428
6034248,4087,4083,3398,1051,1745204718975586428
6035248,4083,4085,3378,1112,1745204718975586428
6036248,4085,4083,3369,1170,1745204718975586428
6037248,4084,4084,3362,1219,1745204718975586428
6038248,4082,4083,3335,1241,1745204718975586428
6039248,4084,4084,3277,1234,1745204718975586428
6040248,4084,4083,3189,1209,1745204718975586428
6041249,4083,4085,3096,1195,1745204718975586428
6042249,4084,4084,3012,1214,1745204718975586428
6043249,4083,4088,2961,1237,1745204718975586428
6044249,4085,4085,2948,1299,1745204718975586428
6045249,4083,4085,2968,1389,1745204718975586428
6046249,4084,4085,3014,1499,1745204718975586428
6047249,4086,4085,3101,1612,1745204718975586428
6048249,4084,4084,3206,1747,1745204718975586428
6049249,4083,4084,3326,1884,1745204718975586428
6050249,4083,4084,3442,2013,1745204718975586428
6051249,4084,4083,3537,2126,1745204718975586428
6052249,4084,4083,3595,2207,1745204718975586428
6053250,4083,4082,3638,2258,1745204718975586428
6054250,4083,4084,3660,2277,1745204718975586428
6055250,4082,4084,3665,2267,1745204718975586428
6056250,4084,4085,3650,2241,1745204718975586428
6057250,4083,4083,3614,2208,1745204718975586428
6058250,4084,4083,3561,2163,1745204718975586428
6059250,4082,4083,3456,2107,1745204718975586428
6060250,4084,4083,3346,2041,1745204718975586428
6061250,4083,4084,3248,1975,1745204718975586428
6062250,4084,4083,3158,1932,1745204718975586428
6063250,4084,4082,3078,1933,1745204718975586428
6064250,4084,4083,3005,1996,1745204718975586428
6065251,4084,4083,2952,2105,1745204718975586428
6066251,4084,4084,2915,2214,1745204718975586428
6067251,4085,4086,2892,2316,1745204718975586428
6068251,4081,4084,2876,2413,1745204718975586428
6069251,4086,4092,2866,2517,1745204718975586428
6070251,4084,4085,2859,2605,1745204718975586428
6071251,4084,4084,2854,2686,1745204718975586428
6072251,4084,4085,2867,2749,1745204718975586428
6073251,4084,4084,2897,2783,1745204719037446957
6074251,4083,4085,2936,2774,1745204719037446957
6075251,4084,4083,2973,2733,1745204719037446957
6076251,4083,4083,3006,2682,1745204719037446957
6077252,4083,4083,3033,2632,1745204719037446957
6078252,4083,4083,3035,2596,1745204719037446957
6079252,4083,4083,3013,2595,1745204719037446957
6080252,4083,4082,2982,2622,1745204719037446957
6081252,4084,4083,2956,2653,1745204719037446957
6082252,4084,4084,2943,2682,1745204719037446957
6083252,4084,4084,2951,2724,1745204719037446957
6084254,4083,4084,2962,2806,1745204719037446957
6085252,4083,4083,2970,2918,1745204719037446957
6086252,4083,4081,2968,3060,1745204719037446957
6087254,4093,4080,2968,3214,1745204719037446957
6088253,4082,4080,2985,3368,1745204719037446957
6089253,4080,4080,3019,3505,1745204719037446957
6090253,4080,4082,3056,3602,1745204719037446957
6091253,4081,4080,3082,3682,1745204719037446957
6092253,4080,4093,3090,3731,1745204719037446957
6093253,4080,4080,3081,3743,1745204719037446957
6094253,4081,4078,3056,3712,1745204719037446957
6095253,4082,4078,3026,3652,1745204719037446957
6096253,4081,4072,2969,3591,1745204719037446957
6097253,4082,4058,2885,3546,1745204719037446957
6098253,4082,4040,2809,3476,1745204719037446957
6099253,4082,4019,2758,3385,1745204719037446957
6100253,4083,3999,2728,3273,1745204719037446957
6101254,4082,3981,2704,3164,1745204719037446957
6102254,4082,3961,2684,3072,1745204719037446957
6103254,4082,3942,2671,2994,1745204719037446957
6104254,4082,3925,2677,2928,1745204719037446957
6105254,4082,3908,2705,2906,1745204719037446957
6106254,4084,3891,2742,2946,1745204719037446957
6107254,4084,3874,2776,3035,1745204719037446957
6108254,4081,3856,2790,3166,1745204719037446957
6109254,4081,3840,2777,3338,1745204719037446957
6110254,4081,3824,2726,3516,1745204719037446957
6111254,4082,3802,2649,3657,1745204719037446957
6112254,4081,3793,2570,3758,1745204719037446957
6113255,4082,3776,2501,3822,1745204719037446957
6114255,4067,3760,2440,3879,1745204719037446957
6115255,4037,3745,2398,3938,1745204719037446957
6116255,4004,3730,2371,3977,1745204719037446957
6117255,3984,3713,2346,3995,1745204719037446957
6118256,3968,3699,2318,3968,1745204719037446957
6119255,3957,3683,2290,3905,1745204719037446957
6120255,3948,3668,2269,3828,1745204719037446957
6121255,3938,3656,2253,3753,1745204719037446957
6122255,3925,3641,2243,3690,1745204719037446957
6123255,3914,3626,2231,3640,1745204719037446957
6124255,3898,3611,2218,3592,1745204719037446957
6125256,3882,3598,2210,3554,1745204719037446957
6126256,3866,3584,2216,3529,1745204719037446957
6127256,3836,3579,2228,3550,1745204719037446957
6128256,3782,3566,2257,3625,1745204719037446957
6129256,3704,3551,2298,3757,1745204719037446957
6130256,3613,3538,2356,3869,1745204719037446957
6131256,3531,3524,2432,3941,1745204719091895626
6132256,3457,3510,2514,3982,1745204719091895626
6133256,3376,3498,2586,3993,1745204719091895626
6134256,3308,3484,2648,4012,1745204719091895626
6135256,3242,3470,2684,4032,1745204719091895626
6136256,3175,3457,2700,4038,1745204719091895626
6137257,3112,3445,2703,4032,1745204719091895626
6138257,3052,3433,2682,4043,1745204719091895626
6139257,2993,3422,2641,4057,1745204719091895626
6140257,2938,3409,2586,4064,1745204719091895626
6141257,2892,3397,2544,4070,1745204719091895626
6142257,2850,3387,2507,4057,1745204719091895626
6143257,2813,3373,2481,3997,1745204719091895626
6144257,2782,3361,2467,3979,1745204719091895626
6145257,2756,3350,2458,4009,1745204719091895626
6146257,2732,3339,2454,4036,1745204719091895626
6147257,2710,3326,2466,4054,1745204719091895626
6148257,2688,3315,2499,4064,1745204719091895626
6149258,2658,3305,2544,4072,1745204719091895626
6150258,2616,3292,2572,4076,1745204719091895626
6151258,2560,3282,2585,4081,1745204719091895626
6152258,2502,3272,2576,4080,1745204719091895626
6153258,2430,3260,2559,4082,1745204719091895626
6154258,2354,3260,2542,4083,1745204719091895626
6155258,2283,3237,2532,4083,1745204719091895626
6156258,2220,3227,2529,4083,1745204719091895626
6157258,2174,3219,2533,4084,1745204719091895626
6158258,2145,3206,2526,4082,1745204719091895626
6159258,2137,3196,2507,4041,1745204719091895626
6160258,2140,3185,2485,3959,1745204719091895626
6161259,2149,3176,2472,3868,1745204719091895626
6162259,2164,3165,2470,3798,1745204719091895626
6163259,2178,3156,2473,3759,1745204719091895626
6164259,2187,3145,2476,3752,1745204719091895626
6165259,2187,3135,2481,3773,1745204719091895626
6166259,2173,3125,2488,3822,1745204719091895626
6167259,2147,3116,2494,3885,1745204719091895626
6168259,2112,3107,2502,3956,1745204719091895626
6169259,2071,3097,2509,4004,1745204719091895626
6170259,2020,3088,2516,4033,1745204719091895626
6171259,1968,3078,2517,4051,1745204719091895626
6172259,1914,3068,2518,4062,1745204719091895626
6173260,1862,3059,2522,4069,1745204719091895626
6174260,1813,3049,2517,4076,1745204719091895626
6175260,1768,3042,2497,4072,1745204719091895626
6176260,1729,3033,2482,4043,1745204719091895626
6177260,1700,3024,2458,3987,1745204719091895626
6178260,1680,3016,2402,3899,1745204719091895626
6179260,1672,3006,2321,3786,1745204719091895626
6180260,1676,2998,2243,3658,1745204719091895626
6181260,1701,2988,2188,3554,1745204719091895626
6182260,1745,2981,2158,3468,1745204719091895626
6183260,1793,2972,2153,3422,1745204719091895626
6184260,1838,2964,2173,3418,1745204719091895626
6185261,1868,2953,2211,3450,1745204719091895626
6186261,1874,2947,2252,3506,1745204719091895626
6187261,1856,2941,2306,3583,1745204719091895626
6188261,1815,2932,2350,3673,1745204719091895626
6189261,1761,2924,2384,3769,1745204719165676619
6190261,1698,2915,2398,3856,1745204719165676619
6191261,1636,2909,2387,3925,1745204719165676619
6192261,1581,2901,2356,3976,1745204719165676619
6193261,1535,2894,2313,4005,1745204719165676619
6194261,1488,2888,2267,4002,1745204719165676619
6195261,1433,2878,2224,3974,1745204719165676619
6196261,1374,2872,2188,3934,1745204719165676619
6197262,1313,2864,2153,3877,1745204719165676619
6198262,1256,2857,2120,3791,1745204719165676619
6199262,1209,2850,2077,3674,1745204719165676619
6200262,1176,2842,2027,3557,1745204719165676619
6201262,1163,2830,1982,3452,1745204719165676619
6202262,1177,2829,1948,3384,1745204719165676619
6203263,1206,2829,1936,3350,1745204719165676619
6204262,1244,2816,1930,3348,1745204719165676619
6205262,1285,2813,1947,3381,1745204719165676619
6206262,1321,2802,1973,3440,1745204719165676619
6207262,1348,2795,2005,3510,1745204719165676619
6208262,1366,2789,2037,3583,1745204719165676619
6209263,1371,2781,2072,3661,1745204719165676619
6210263,1365,2776,2097,3741,1745204719165676619
6211263,1347,2770,2112,3808,1745204719165676619
6212263,1316,2762,2112,3845,1745204719165676619
6213263,1276,2757,2101,3853,1745204719165676619
6214263,1232,2750,2085,3838,1745204719165676619
6215263,1188,2744,2065,3811,1745204719165676619
6216263,1153,2738,2042,3783,1745204719165676619
6217263,1127,2732,2018,3740,1745204719165676619
6218263,1112,2726,1984,3665,1745204719165676619
6219263,1106,2720,1940,3560,1745204719165676619
6220263,1116,2714,1899,3425,1745204719165676619
6221264,1137,2708,1866,3299,1745204719165676619
6222264,1166,2703,1850,3197,1745204719165676619
6223264,1195,2697,1848,3133,1745204719165676619
6224264,1221,2692,1864,3109,1745204719165676619
6225264,1241,2685,1890,3126,1745204719165676619
6226264,1250,2680,1928,3170,1745204719165676619
6227264,1249,2675,1971,3232,1745204719165676619
6228264,1235,2669,2017,3311,1745204719165676619
6229264,1209,2664,2060,3393,1745204719165676619
6230264,1176,2658,2089,3466,1745204719165676619
6231264,1137,2651,2101,3514,1745204719165676619
6232264,1098,2646,2097,3537,1745204719165676619
6233265,1061,2642,2081,3533,1745204719165676619
6234265,1021,2636,2061,3510,1745204719165676619
6235265,977,2632,2037,3474,1745204719165676619
6236265,922,2626,2018,3433,1745204719165676619
6237265,862,2620,1996,3380,1745204719165676619
6238265,807,2617,1963,3321,1745204719165676619
6239265,760,2612,1922,3231,1745204719165676619
6240265,728,2606,1878,3144,1745204719165676619
6241265,711,2603,1840,3073,1745204719165676619
6242265,712,2597,1815,3033,1745204719165676619
6243265,724,2592,1801,3024,1745204719165676619
6244265,752,2587,1803,3046,1745204719165676619
6245266,787,2582,1821,3099,1745204719165676619
6246266,822,2578,1844,3165,1745204719165676619
6247266,862,2574,1866,3240,1745204719216439592
6248266,897,2569,1888,3326,1745204719216439592
6249266,906,2564,1921,3421,1745204719216439592
6250266,876,2560,1956,3518,1745204719216439592
6251266,819,2559,1989,3610,1745204719216439592
6252266,753,2559,2006,3715,1745204719216439592
6253266,699,2555,2010,3811,1745204719216439592
6254266,670,2550,2009,3877,1745204719216439592
6255266,656,2547,2001,3908,1745204719216439592
6256266,644,2542,1987,3908,1745204719216439592
6257267,633,2538,1970,3873,1745204719216439592
6258267,628,2533,1948,3806,1745204719216439592
6259267,630,2530,1920,3704,1745204719216439592
6260267,643,2526,1882,3587,1745204719216439592
6261267,659,2521,1870,3486,1745204719216439592
6262267,665,2520,1861,3399,1745204719216439592
6263267,648,2514,1865,3344,1745204719216439592
6264267,618,2510,1882,3319,1745204719216439592
6265267,598,2507,1910,3322,1745204719216439592
6266267,588,2502,1947,3336,1745204719216439592
6267267,579,2498,1981,3345,1745204719216439592
6268267,563,2493,2025,3387,1745204719216439592
6269268,538,2491,2066,3423,1745204719216439592
6270268,511,2486,2100,3449,1745204719216439592
6271268,474,2481,2123,3454,1745204719216439592
6272268,425,2480,2136,3436,1745204719216439592
6273268,374,2475,2133,3409,1745204719216439592
6274268,325,2472,2124,3381,1745204719216439592
6275268,277,2468,2106,3357,1745204719216439592
6276268,229,2465,2081,3334,1745204719216439592
6277268,187,2467,2053,3303,1745204719216439592
6278268,152,2458,2014,3256,1745204719216439592
6279268,128,2454,1979,3182,1745204719216439592
6280268,106,2451,1930,3101,1745204719216439592
6281269,89,2448,1894,3023,1745204719216439592
6282269,76,2444,1870,2973,1745204719216439592
6283269,66,2441,1859,2947,1745204719216439592
6284269,57,2438,1869,2930,1745204719216439592
6285269,52,2435,1888,2905,1745204719216439592
6286269,46,2432,1920,2882,1745204719216439592
6287269,43,2429,1957,2917,1745204719216439592
6288269,40,2424,2000,3022,1745204719216439592
6289269,37,2406,2038,3184,1745204719216439592
6290269,35,2374,2069,3337,1745204719216439592
6291269,33,2339,2082,3425,1745204719216439592
6292269,32,2315,2075,3534,1745204719216439592
6293270,31,2301,2056,3626,1745204719216439592
6294270,29,2301,2026,3670,1745204719216439592
6295270,29,2310,1989,3669,1745204719216439592
6296270,27,2324,1953,3634,1745204719216439592
6297270,27,2340,1917,3570,1745204719216439592
6298270,28,2352,1878,3486,1745204719216439592
6299270,27,2363,1842,3403,1745204719216439592
6300270,27,2371,1811,3301,1745204719216439592
6301270,26,2377,1792,3185,1745204719216439592
6302270,38,2379,1784,3068,1745204719216439592
6303270,81,2380,1788,2973,1745204719216439592
6304270,152,2379,1808,2912,1745204719216439592
6305271,235,2377,1842,2894,1745204719269890927
6306271,315,2361,1882,2906,1745204719269890927
6307271,382,2323,1924,2921,1745204719269890927
6308271,433,2228,1958,2929,1745204719269890927
6309271,465,2104,1989,2930,1745204719269890927
6310271,485,1958,2019,2913,1745204719269890927
6311271,505,1811,2041,2876,1745204719269890927
6312271,523,1683,2050,2834,1745204719269890927
6313271,565,1582,2049,2781,1745204719269890927
6314271,609,1515,2037,2721,1745204719269890927
6315271,641,1470,2019,2657,1745204719269890927
6316271,660,1453,2002,2596,1745204719269890927
6317272,673,1466,1982,2542,1745204719269890927
6318272,683,1517,1956,2468,1745204719269890927
6319272,704,1605,1918,2379,1745204719269890927
6320273,732,1736,1881,2288,1745204719269890927
6321272,766,1871,1856,2208,1745204719269890927
6322272,807,1993,1849,2146,1745204719269890927
6323272,851,2082,1865,2109,1745204719269890927
6324272,892,2128,1892,2095,1745204719269890927
6325272,932,2132,1929,2093,1745204719269890927
6326272,968,2100,1966,2098,1745204719269890927
6327272,995,2042,2000,2115,1745204719269890927
6328273,1025,1966,2029,2152,1745204719269890927
6329273,1041,1873,2053,2195,1745204719269890927
6330273,1037,1762,2057,2234,1745204719269890927
6331273,1017,1645,2045,2258,1745204719269890927
6332273,984,1539,2020,2272,1745204719269890927
6333273,939,1458,1986,2282,1745204719269890927
6334273,892,1397,1949,2288,1745204719269890927
6335273,850,1349,1917,2297,1745204719269890927
6336273,818,1307,1888,2321,1745204719269890927
6337273,805,1270,1870,2349,1745204719269890927
6338273,811,1252,1850,2342,1745204719269890927
6339273,830,1269,1820,2291,1745204719269890927
6340273,862,1327,1778,2202,1745204719269890927
6341274,901,1401,1746,2127,1745204719269890927
6342274,939,1466,1714,2108,1745204719269890927
6343274,974,1516,1695,2141,1745204719269890927
6344274,997,1535,1688,2186,1745204719269890927
6345274,1004,1525,1681,2232,1745204719269890927
6346274,988,1489,1666,2304,1745204719269890927
6347274,952,1436,1643,2414,1745204719269890927
6348274,907,1363,1629,2539,1745204719269890927
6349274,864,1268,1635,2654,1745204719269890927
6350274,829,1161,1684,2784,1745204719269890927
6351275,804,1065,1765,2904,1745204719269890927
6352274,787,989,1857,3006,1745204719269890927
6353275,779,940,1940,3093,1745204719269890927
6354275,774,913,2009,3163,1745204719269890927
6355275,768,904,2058,3218,1745204719269890927
6356275,757,906,2079,3259,1745204719269890927
6357275,746,922,2076,3272,1745204719269890927
6358275,734,962,2058,3257,1745204719269890927
6359275,729,1029,2033,3212,1745204719269890927
6360275,742,1115,2018,3163,1745204719269890927
6361275,775,1202,2017,3120,1745204719269890927
6362275,824,1271,2020,3093,1745204719269890927
6363275,878,1317,2021,3090,1745204719327907897
6364275,930,1338,2020,3113,1745204719327907897
6365276,975,1331,2027,3150,1745204719327907897
6366276,1012,1300,2050,3192,1745204719327907897
6367276,1046,1250,2087,3236,1745204719327907897
6368276,1070,1178,2142,3284,1745204719327907897
6369276,1085,1096,2205,3332,1745204719327907897
6370276,1084,1001,2250,3379,1745204719327907897
6371276,1069,911,2260,3419,1745204719327907897
6372276,1044,834,2244,3446,1745204719327907897
6373276,1016,773,2213,3457,1745204719327907897
6374276,991,730,2170,3450,1745204719327907897
6375276,972,700,2122,3429,1745204719327907897
6376277,956,687,2074,3410,1745204719327907897
6377277,941,690,2020,3378,1745204719327907897
6378277,928,716,1950,3337,1745204719327907897
6379277,917,770,1870,3272,1745204719327907897
6380277,915,848,1793,3198,1745204719327907897
6381277,922,933,1740,3133,1745204719327907897
6382277,933,1013,1722,3084,1745204719327907897
6383277,952,1082,1746,3057,1745204719327907897
6384277,973,1123,1805,3054,1745204719327907897
6385277,994,1136,1884,3075,1745204719327907897
6386277,1016,1117,1968,3113,1745204719327907897
6387277,1036,1071,2039,3154,1745204719327907897
6388277,1051,999,2094,3208,1745204719327907897
6389278,1061,907,2129,3265,1745204719327907897
6390278,1066,803,2144,3310,1745204719327907897
6391278,1066,706,2133,3333,1745204719327907897
6392278,1060,626,2094,3332,1745204719327907897
6393278,1052,566,2022,3310,1745204719327907897
6394278,1043,522,1936,3276,1745204719327907897
6395278,1041,499,1852,3229,1745204719327907897
6396278,1042,474,1785,3185,1745204719327907897
6397278,1043,460,1731,3132,1745204719327907897
6398278,1037,466,1697,3065,1745204719327907897
6399278,1030,502,1680,2980,1745204719327907897
6400278,1017,550,1669,2897,1745204719327907897
6401279,1001,606,1654,2831,1745204719327907897
6402279,970,642,1641,2795,1745204719327907897
6403279,924,638,1637,2792,1745204719327907897
6404279,872,591,1647,2818,1745204719327907897
6405279,825,512,1677,2869,1745204719327907897
6406279,790,433,1731,2936,1745204719327907897
6407279,770,348,1790,3003,1745204719327907897
6408279,765,277,1878,3076,1745204719327907897
6409279,768,222,1985,3149,1745204719327907897
6410279,773,179,2099,3222,1745204719327907897
6411279,778,147,2188,3277,1745204719327907897
6412279,776,120,2224,3308,1745204719327907897
6413280,776,101,2201,3318,1745204719327907897
6414280,780,84,2134,3311,1745204719327907897
6415280,788,72,2043,3291,1745204719327907897
6416280,798,62,1956,3261,1745204719327907897
6417280,805,54,1887,3218,1745204719327907897
6418280,812,49,1841,3149,1745204719327907897
6419280,817,44,1820,3053,1745204719327907897
6420280,821,45,1820,2944,1745204719327907897
6421280,824,78,1835,2846,1745204719384458058
6422280,819,137,1858,2772,1745204719384458058
6423280,805,208,1892,2727,1745204719384458058
6424280,787,273,1936,2699,1745204719384458058
6425281,768,322,1990,2656,1745204719384458058
6426281,755,350,2049,2604,1745204719384458058
6427281,749,356,2101,2563,1745204719384458058
6428281,748,341,2150,2555,1745204719384458058
6429281,748,303,2198,2562,1745204719384458058
6430281,751,253,2237,2608,1745204719384458058
6431281,751,201,2269,2666,1745204719384458058
6432281,749,158,2288,2736,1745204719384458058
6433281,740,129,2296,2809,1745204719384458058
6434281,727,114,2291,2881,1745204719384458058
6435281,714,110,2275,2949,1745204719384458058
6436281,711,110,2251,3012,1745204719384458058
6437282,718,137,2225,3061,1745204719384458058
6438282,745,180,2191,3092,1745204719384458058
6439282,786,248,2148,3101,1745204719384458058
6440282,842,333,2097,3109,1745204719384458058
6441282,912,425,2039,3126,1745204719384458058
6442282,988,506,1986,3149,1745204719384458058
6443282,1065,556,1929,3176,1745204719384458058
6444282,1127,592,1876,3204,1745204719384458058
6445282,1174,600,1842,3230,1745204719384458058
6446282,1201,585,1836,3254,1745204719384458058
6447282,1209,551,1867,3272,1745204719384458058
6448282,1203,510,1932,3288,1745204719384458058
6449283,1184,442,2021,3306,1745204719384458058
6450283,1157,362,2122,3329,1745204719384458058
6451283,1126,282,2220,3341,1745204719384458058
6452283,1094,217,2304,3336,1745204719384458058
6453283,1061,170,2352,3312,1745204719384458058
6454284,1027,140,2362,3275,1745204719384458058
6455284,992,132,2342,3228,1745204719384458058
6456283,955,141,2313,3173,1745204719384458058
6457284,921,171,2284,3114,1745204719384458058
6458283,877,226,2254,3035,1745204719384458058
6459283,829,314,2229,2938,1745204719384458058
6460283,788,429,2203,2834,1745204719384458058
6461284,752,545,2181,2743,1745204719384458058
6462284,723,659,2163,2672,1745204719384458058
6463284,702,747,2158,2626,1745204719384458058
6464284,686,805,2173,2610,1745204719384458058
6465284,669,827,2196,2613,1745204719384458058
6466284,650,813,2203,2626,1745204719384458058
6467284,624,767,2190,2642,1745204719384458058
6468284,594,690,2164,2673,1745204719384458058
6469284,558,587,2138,2716,1745204719384458058
6470284,520,475,2110,2761,1745204719384458058
6471284,483,361,2083,2792,1745204719384458058
6472284,436,277,2061,2793,1745204719384458058
6473285,392,217,2054,2772,1745204719384458058
6474285,353,170,2069,2736,1745204719384458058
6475285,320,135,2108,2689,1745204719384458058
6476285,294,109,2155,2662,1745204719384458058
6477285,274,91,2197,2626,1745204719384458058
6478285,264,104,2214,2577,1745204719384458058
6479285,273,155,2205,2523,1745204719448834501
6480285,297,237,2178,2459,1745204719448834501
6481285,339,334,2149,2408,1745204719448834501
6482285,388,435,2129,2379,1745204719448834501
6483285,436,515,2125,2369,1745204719448834501
6484285,475,581,2137,2396,1745204719448834501
6485286,502,618,2164,2446,1745204719448834501
6486286,511,622,2197,2512,1745204719448834501
6487286,511,597,2230,2574,1745204719448834501
6488286,508,546,2266,2650,1745204719448834501
6489286,491,484,2294,2734,1745204719448834501
6490286,469,398,2310,2816,1745204719448834501
6491286,448,310,2313,2886,1745204719448834501
6492286,429,240,2302,2932,1745204719448834501
6493287,416,186,2280,2952,1745204719448834501
6494286,409,146,2248,2945,1745204719448834501
6495286,410,120,2208,2921,1745204719448834501
6496286,420,112,2162,2881,1745204719448834501
6497287,441,129,2112,2821,1745204719448834501
6498287,474,168,2056,2734,1745204719448834501
6499287,511,237,1993,2628,1745204719448834501
6500287,539,320,1934,2526,1745204719448834501
6501287,574,397,1880,2429,1745204719448834501
6502287,607,459,1851,2356,1745204719448834501
6503287,636,504,1837,2313,1745204719448834501
6504287,660,515,1843,2294,1745204719448834501
6505287,675,511,1867,2292,1745204719448834501
6506287,687,488,1905,2297,1745204719448834501
6507287,694,441,1944,2303,1745204719448834501
6508287,700,376,1981,2321,1745204719448834501
6509288,699,294,2012,2349,1745204719448834501
6510288,692,226,2040,2382,1745204719448834501
6511288,680,175,2060,2411,1745204719448834501
6512288,664,137,2068,2432,1745204719448834501
6513288,650,108,2065,2443,1745204719448834501
6514288,638,88,2058,2448,1745204719448834501
6515288,634,73,2042,2440,1745204719448834501
6516288,636,65,2025,2416,1745204719448834501
6517288,648,80,2002,2365,1745204719448834501
6518288,663,128,1974,2285,1745204719448834501
6519288,699,217,1939,2189,1745204719448834501
6520288,738,338,1905,2103,1745204719448834501
6521289,779,471,1877,2028,1745204719448834501
6522289,818,581,1859,1981,1745204719448834501
6523289,852,675,1856,1963,1745204719448834501
6524289,876,729,1866,1973,1745204719448834501
6525289,894,744,1884,2018,1745204719448834501
6526289,909,720,1905,2082,1745204719448834501
6527289,923,672,1929,2147,1745204719448834501
6528289,936,605,1956,2223,1745204719448834501
6529289,945,525,1980,2306,1745204719448834501
6530289,949,434,2000,2386,1745204719448834501
6531289,950,333,2010,2450,1745204719448834501
6532289,954,256,2008,2497,1745204719448834501
6533290,958,199,1994,2530,1745204719448834501
6534290,970,156,1978,2544,1745204719448834501
6535290,986,123,1960,2532,1745204719448834501
6536290,1010,99,1938,2514,1745204719448834501
6537290,1043,81,1910,2484,1745204719501247668
6538290,1085,68,1874,2436,1745204719501247668
6539290,1133,57,1829,2381,1745204719501247668
6540290,1189,57,1788,2329,1745204719501247668
6541290,1246,94,1754,2284,1745204719501247668
6542290,1306,150,1732,2244,1745204719501247668
6543290,1353,197,1720,2208,1745204719501247668
6544290,1392,242,1724,2182,1745204719501247668
6545291,1417,257,1740,2180,1745204719501247668
6546291,1433,257,1769,2194,1745204719501247668
6547291,1442,235,1801,2213,1745204719501247668
6548291,1450,188,1844,2249,1745204719501247668
6549291,1452,145,1886,2294,1745204719501247668
6550291,1437,112,1922,2345,1745204719501247668
6551291,1402,89,1948,2387,1745204719501247668
6552291,1350,73,1963,2412,1745204719501247668
6553291,1284,60,1968,2424,1745204719501247668
6554291,1211,52,1962,2430,1745204719501247668
6555291,1140,44,1947,2430,1745204719501247668
6556291,1076,38,1933,2418,1745204719501247668
6557292,1025,37,1915,2394,1745204719501247668
6558292,985,31,1888,2344,1745204719501247668
6559292,961,35,1851,2278,1745204719501247668
6560292,955,81,1814,2209,1745204719501247668
6561292,965,174,1783,2152,1745204719501247668
6562292,985,290,1774,2117,1745204719501247668
6563292,1006,403,1775,2107,1745204719501247668
6564292,1025,492,1789,2122,1745204719501247668
6565292,1044,541,1817,2172,1745204719501247668
6566292,1057,562,1840,2241,1745204719501247668
6567292,1065,553,1888,2314,1745204719501247668
6568292,1061,511,1929,2397,1745204719501247668
6569293,1044,437,1967,2476,1745204719501247668
6570293,1016,344,2001,2544,1745204719501247668
6571293,979,260,2029,2574,1745204719501247668
6572293,941,201,2044,2582,1745204719501247668
6573293,907,156,2050,2559,1745204719501247668
6574293,877,122,2041,2506,1745204719501247668
6575293,852,99,2029,2421,1745204719501247668
6576293,844,80,2011,2338,1745204719501247668
6577293,853,66,1994,2243,1745204719501247668
6578293,858,56,1969,2164,1745204719501247668
6579293,854,49,1938,2096,1745204719501247668
6580293,844,42,1904,2037,1745204719501247668
6581294,832,38,1882,2001,1745204719501247668
6582294,821,36,1874,1992,1745204719501247668
6583294,810,53,1881,2020,1745204719501247668
6584294,804,80,1902,2080,1745204719501247668
6585294,803,102,1935,2148,1745204719501247668
6586294,806,115,1969,2212,1745204719501247668
6587294,819,118,2003,2268,1745204719501247668
6588294,835,98,2041,2322,1745204719501247668
6589294,845,77,2057,2376,1745204719501247668
6590294,860,62,2069,2417,1745204719501247668
6591294,868,52,2072,2426,1745204719501247668
6592294,876,44,2067,2380,1745204719501247668
6593295,881,40,2053,2288,1745204719501247668
6594295,888,35,2029,2189,1745204719501247668
6595295,901,33,2005,2094,1745204719564924274
6596295,922,33,1982,2011,1745204719564924274
6597295,954,57,1968,1950,1745204719564924274
6598295,993,130,1952,1900,1745204719564924274
6599295,1039,251,1929,1856,1745204719564924274
6600295,1101,406,1902,1824,1745204719564924274
6601295,1162,562,1882,1811,1745204719564924274
6602295,1227,717,1871,1819,1745204719564924274
6603295,1291,843,1867,1839,1745204719564924274
6604295,1354,932,1869,1869,1745204719564924274
6605296,1412,982,1874,1906,1745204719564924274
6606296,1464,1002,1903,1946,1745204719564924274
6607296,1508,1001,1926,1988,1745204719564924274
6608296,1539,981,1955,2029,1745204719564924274
6609296,1569,944,1987,2066,1745204719564924274
6610296,1592,886,2014,2080,1745204719564924274
6611296,1608,805,2021,2077,1745204719564924274
6612296,1618,706,2009,2065,1745204719564924274
6613296,1627,612,1979,2004,1745204719564924274
6614296,1636,533,1945,1953,1745204719564924274
6615298,1648,508,1917,1899,1745204719564924274
6616296,1664,516,1904,1846,1745204719564924274
6617297,1682,577,1904,1798,1745204719564924274
6618297,1702,686,1915,1749,1745204719564924274
6619297,1732,840,1933,1693,1745204719564924274
6620297,1754,1017,1955,1635,1745204719564924274
6621297,1784,1192,1987,1586,1745204719564924274
6622297,1814,1350,2029,1555,1745204719564924274
6623297,1842,1485,2076,1544,1745204719564924274
6624297,1868,1571,2120,1560,1745204719564924274
6625297,1890,1613,2156,1605,1745204719564924274
6626297,1907,1611,2187,1665,1745204719564924274
6627297,1922,1572,2209,1726,1745204719564924274
6628297,1931,1505,2228,1791,1745204719564924274
6629298,1932,1402,2246,1857,1745204719564924274
6630298,1929,1289,2257,1909,1745204719564924274
6631298,1920,1188,2258,1940,1745204719564924274
6632298,1908,1118,2251,1949,1745204719564924274
6633298,1894,1089,2230,1939,1745204719564924274
6634298,1882,1098,2196,1914,1745204719564924274
6635298,1873,1141,2152,1883,1745204719564924274
6636298,1864,1212,2102,1861,1745204719564924274
6637298,1856,1304,2048,1852,1745204719564924274
6638298,1849,1422,1987,1837,1745204719564924274
6639298,1848,1552,1926,1805,1745204719564924274
6640298,1852,1697,1872,1768,1745204719564924274
6641299,1862,1831,1834,1739,1745204719564924274
6642299,1872,1951,1812,1726,1745204719564924274
6643299,1883,2042,1804,1736,1745204719564924274
6644299,1896,2098,1804,1764,1745204719564924274
6645299,1901,2107,1811,1808,1745204719564924274
6646299,1902,2080,1820,1862,1745204719564924274
6647299,1896,2019,1828,1922,1745204719564924274
6648299,1881,1941,1830,1990,1745204719564924274
6649299,1860,1841,1829,2065,1745204719564924274
6650299,1835,1733,1828,2133,1745204719564924274
6651299,1805,1627,1829,2190,1745204719564924274
6652299,1774,1537,1842,2229,1745204719564924274
6653300,1742,1477,1876,2253,1745204719626941363
6654300,1712,1432,1929,2264,1745204719626941363
6655300,1685,1410,1989,2266,1745204719626941363
6656300,1666,1403,2044,2259,1745204719626941363
6657300,1650,1411,2081,2244,1745204719626941363
6658300,1640,1448,2083,2210,1745204719626941363
6659300,1633,1518,2052,2161,1745204719626941363
6660300,1630,1606,1993,2108,1745204719626941363
6661300,1632,1708,1928,2064,1745204719626941363
6662300,1637,1796,1859,2037,1745204719626941363
6663301,1644,1856,1794,2036,1745204719626941363
6664300,1646,1881,1734,2065,1745204719626941363
6665301,1643,1869,1684,2108,1745204719626941363
6666301,1636,1827,1632,2168,1745204719626941363
6667301,1626,1765,1589,2235,1745204719626941363
6668301,1613,1684,1569,2307,1745204719626941363
6669301,1598,1589,1582,2374,1745204719626941363
6670301,1581,1496,1630,2434,1745204719626941363
6671301,1565,1401,1712,2478,1745204719626941363
6672301,1550,1324,1818,2499,1745204719626941363
6673301,1537,1273,1921,2500,1745204719626941363
6674301,1532,1234,2002,2486,1745204719626941363
6675301,1520,1217,2066,2464,1745204719626941363
6676301,1510,1220,2104,2435,1745204719626941363
6677302,1503,1233,2112,2400,1745204719626941363
6678302,1501,1279,2072,2345,1745204719626941363
6679302,1500,1356,1994,2273,1745204719626941363
6680302,1508,1457,1897,2196,1745204719626941363
6681302,1522,1557,1806,2129,1745204719626941363
6682302,1535,1652,1742,2084,1745204719626941363
6683302,1555,1729,1713,2062,1745204719626941363
6684302,1574,1769,1721,2068,1745204719626941363
6685302,1592,1783,1763,2096,1745204719626941363
6686302,1616,1769,1830,2138,1745204719626941363
6687302,1637,1736,1910,2190,1745204719626941363
6688302,1656,1683,1993,2256,1745204719626941363
6689303,1684,1611,2074,2325,1745204719626941363
6690303,1708,1535,2146,2386,1745204719626941363
6691303,1728,1464,2200,2429,1745204719626941363
6692303,1749,1401,2230,2452,1745204719626941363
6693303,1771,1355,2241,2461,1745204719626941363
6694303,1798,1322,2232,2456,1745204719626941363
6695303,1829,1304,2213,2441,1745204719626941363
6696303,1865,1298,2194,2417,1745204719626941363
6697303,1905,1306,2177,2384,1745204719626941363
6698303,1949,1341,2157,2328,1745204719626941363
6699303,1997,1412,2129,2251,1745204719626941363
6700303,2049,1506,2102,2165,1745204719626941363
6701304,2100,1601,2093,2091,1745204719626941363
6702304,2150,1693,2105,2037,1745204719626941363
6703304,2194,1766,2142,2012,1745204719626941363
6704304,2230,1817,2193,2014,1745204719626941363
6705304,2258,1841,2246,2037,1745204719626941363
6706304,2275,1843,2291,2081,1745204719626941363
6707304,2286,1827,2322,2135,1745204719626941363
6708304,2288,1788,2333,2198,1745204719626941363
6709304,2282,1724,2316,2264,1745204719626941363
6710304,2266,1647,2273,2323,1745204719626941363
6711304,2244,1566,2210,2368,1745204719680015253
6712304,2222,1505,2138,2395,1745204719680015253
6713305,2201,1453,2072,2401,1745204719680015253
6714305,2179,1419,2019,2408,1745204719680015253
6715305,2149,1394,1993,2398,1745204719680015253
6716305,2123,1367,2000,2383,1745204719680015253
6717305,2108,1334,2031,2354,1745204719680015253
6718305,2106,1320,2062,2306,1745204719680015253
6719305,2118,1350,2070,2241,1745204719680015253
6720305,2148,1426,2061,2168,1745204719680015253
6721305,2186,1520,2041,2107,1745204719680015253
6722305,2230,1605,2022,2064,1745204719680015253
6723305,2280,1683,2018,2038,1745204719680015253
6724305,2330,1737,2033,2040,1745204719680015253
6725306,2379,1757,2065,2065,1745204719680015253
6726306,2421,1749,2101,2105,1745204719680015253
6727306,2456,1718,2138,2151,1745204719680015253
6728306,2470,1671,2163,2206,1745204719680015253
6729306,2469,1604,2166,2268,1745204719680015253
6730306,2448,1535,2150,2328,1745204719680015253
6731306,2417,1474,2114,2374,1745204719680015253
6732306,2383,1408,2068,2404,1745204719680015253
6733306,2348,1386,2016,2419,1745204719680015253
6734308,2313,1366,1971,2417,1745204719680015253
6735306,2281,1364,1935,2403,1745204719680015253
6736306,2250,1373,1906,2377,1745204719680015253
6737307,2219,1387,1885,2339,1745204719680015253
6738307,2189,1433,1862,2286,1745204719680015253
6739307,2159,1487,1842,2224,1745204719680015253
6740307,2132,1540,1824,2158,1745204719680015253
6741307,2122,1584,1809,2100,1745204719680015253
6742307,2085,1603,1816,2067,1745204719680015253
6743307,2060,1601,1843,2057,1745204719680015253
6744307,2035,1588,1883,2067,1745204719680015253
6745307,2013,1570,1931,2107,1745204719680015253
6746307,2009,1565,1978,2155,1745204719680015253
6747307,2007,1579,2025,2211,1745204719680015253
6748307,2011,1609,2078,2279,1745204719680015253
6749308,2018,1640,2126,2352,1745204719680015253
6750308,2025,1660,2169,2418,1745204719680015253
6751308,2026,1666,2198,2469,1745204719680015253
6752308,2022,1658,2220,2501,1745204719680015253
6753308,2011,1636,2235,2515,1745204719680015253
6754308,1999,1601,2242,2515,1745204719680015253
6755308,1990,1554,2243,2507,1745204719680015253
6756308,1987,1510,2246,2493,1745204719680015253
6757308,1989,1464,2254,2462,1745204719680015253
6758308,1997,1435,2257,2405,1745204719680015253
6759308,2011,1441,2240,2320,1745204719680015253
6760308,2028,1481,2203,2222,1745204719680015253
6761309,2043,1535,2154,2127,1745204719680015253
6762309,2057,1608,2110,2040,1745204719680015253
6763309,2067,1673,2083,1970,1745204719680015253
6764309,2072,1724,2075,1920,1745204719680015253
6765309,2070,1755,2084,1889,1745204719680015253
6766309,2060,1768,2098,1876,1745204719680015253
6767309,2036,1760,2114,1874,1745204719680015253
6768309,2005,1729,2136,1884,1745204719680015253
6769309,1971,1674,2161,1899,1745204719735255582
6770309,1938,1604,2186,1909,1745204719735255582
6771309,1906,1535,2201,1910,1745204719735255582
6772309,1876,1477,2201,1899,1745204719735255582
6773310,1845,1430,2189,1882,1745204719735255582
6774310,1818,1401,2171,1861,1745204719735255582
6775310,1800,1389,2150,1849,1745204719735255582
6776310,1790,1397,2133,1845,1745204719735255582
6777310,1787,1419,2126,1842,1745204719735255582
6778310,1794,1460,2129,1835,1745204719735255582
6779310,1806,1528,2133,1825,1745204719735255582
6780310,1819,1604,2138,1828,1745204719735255582
6781310,1829,1693,2153,1858,1745204719735255582
6782310,1836,1769,2177,1915,1745204719735255582
6783310,1840,1824,2206,1989,1745204719735255582
6784310,1834,1849,2241,2091,1745204719735255582
6785311,1822,1845,2273,2238,1745204719735255582
6786311,1804,1813,2302,2404,1745204719735255582
6787311,1784,1749,2325,2559,1745204719735255582
6788312,1763,1654,2336,2704,1745204719735255582
6789311,1741,1538,2322,2817,1745204719735255582
6790311,1717,1425,2278,2894,1745204719735255582
6791311,1692,1317,2218,2936,1745204719735255582
6792311,1664,1230,2149,2944,1745204719735255582
6793311,1640,1173,2097,2924,1745204719735255582
6794311,1618,1141,2056,2882,1745204719735255582
6795311,1597,1136,2020,2826,1745204719735255582
6796311,1585,1148,1995,2762,1745204719735255582
6797313,1571,1184,1978,2690,1745204719735255582
6798312,1571,1251,1968,2598,1745204719735255582
6799312,1580,1355,1962,2505,1745204719735255582
6800312,1603,1486,1964,2399,1745204719735255582
6801312,1636,1620,1986,2306,1745204719735255582
6802312,1674,1756,2024,2233,1745204719735255582
6803312,1714,1866,2073,2178,1745204719735255582
6804312,1750,1947,2118,2144,1745204719735255582
6805312,1786,1997,2156,2126,1745204719735255582
6806312,1826,2025,2188,2118,1745204719735255582
6807312,1873,2041,2212,2114,1745204719735255582
6808312,1924,2048,2225,2114,1745204719735255582
6809313,1978,2048,2225,2113,1745204719735255582
6810313,2032,2055,2208,2098,1745204719735255582
6811313,2088,2082,2177,2067,1745204719735255582
6812313,2138,2136,2142,2013,1745204719735255582
6813313,2185,2217,2106,1949,1745204719735255582
6814313,2225,2319,2072,1882,1745204719735255582
6815313,2261,2440,2040,1809,1745204719735255582
6816313,2294,2559,2014,1746,1745204719735255582
6817313,2322,2678,1988,1682,1745204719735255582
6818313,2345,2812,1957,1614,1745204719735255582
6819313,2365,2947,1922,1542,1745204719735255582
6820313,2380,3085,1889,1486,1745204719735255582
6821314,2395,3206,1865,1437,1745204719735255582
6822314,2403,3308,1850,1410,1745204719735255582
6823314,2410,3370,1851,1405,1745204719735255582
6824314,2406,3393,1866,1428,1745204719735255582
6825314,2392,3373,1893,1475,1745204719735255582
6826314,2364,3304,1928,1535,1745204719735255582
6827314,2328,3197,1970,1606,1745204719799411350
6828314,2293,3052,2017,1693,1745204719799411350
6829314,2259,2881,2070,1785,1745204719799411350
6830314,2229,2705,2116,1870,1745204719799411350
6831314,2200,2550,2153,1942,1745204719799411350
6832314,2170,2416,2180,1994,1745204719799411350
6833315,2145,2315,2192,2026,1745204719799411350
6834315,2120,2238,2192,2048,1745204719799411350
6835315,2091,2177,2184,2056,1745204719799411350
6836315,2062,2128,2171,2059,1745204719799411350
6837315,2030,2093,2153,2051,1745204719799411350
6838315,2003,2080,2125,2024,1745204719799411350
6839315,1981,2091,2088,1979,1745204719799411350
6840315,1970,2124,2049,1928,1745204719799411350
6841315,1971,2164,2016,1884,1745204719799411350
6842315,1982,2186,1994,1858,1745204719799411350
6843316,2001,2171,1987,1850,1745204719799411350
6844316,2022,2121,1990,1863,1745204719799411350
6845316,2040,2035,2013,1889,1745204719799411350
6846316,2053,1936,2040,1924,1745204719799411350
6847316,2056,1816,2072,1964,1745204719799411350
6848317,2052,1688,2102,2013,1745204719799411350
6849316,2038,1552,2130,2066,1745204719799411350
6850316,2024,1428,2149,2112,1745204719799411350
6851316,2008,1315,2162,2148,1745204719799411350
6852316,1997,1225,2160,2183,1745204719799411350
6853316,1987,1156,2152,2188,1745204719799411350
6854316,1974,1112,2137,2188,1745204719799411350
6855316,1953,1084,2118,2176,1745204719799411350
6856316,1928,1074,2101,2147,1745204719799411350
6857317,1896,1081,2081,2107,1745204719799411350
6858317,1860,1114,2051,2044,1745204719799411350
6859317,1824,1180,2017,1966,1745204719799411350
6860317,1791,1267,1984,1885,1745204719799411350
6861317,1761,1355,1963,1818,1745204719799411350
6862317,1733,1424,1955,1768,1745204719799411350
6863317,1705,1462,1964,1736,1745204719799411350
6864317,1673,1475,1984,1717,1745204719799411350
6865317,1636,1454,2013,1713,1745204719799411350
6866317,1596,1416,2048,1729,1745204719799411350
6867317,1560,1361,2081,1769,1745204719799411350
6868317,1535,1280,2113,1828,1745204719799411350
6869318,1507,1174,2140,1905,1745204719799411350
6870318,1479,1065,2155,1982,1745204719799411350
6871318,1454,970,2158,2043,1745204719799411350
6872318,1432,898,2152,2085,1745204719799411350
6873318,1410,848,2138,2101,1745204719799411350
6874318,1392,817,2114,2105,1745204719799411350
6875318,1376,803,2102,2102,1745204719799411350
6876318,1361,800,2081,2105,1745204719799411350
6877318,1350,809,2058,2096,1745204719799411350
6878318,1344,836,2026,2066,1745204719799411350
6879318,1340,898,1989,2010,1745204719799411350
6880318,1340,984,1957,1947,1745204719799411350
6881319,1342,1072,1931,1891,1745204719799411350
6882319,1348,1156,1922,1842,1745204719799411350
6883319,1360,1220,1929,1812,1745204719799411350
6884319,1372,1255,1946,1800,1745204719799411350
6885319,1380,1253,1976,1798,1745204719857459622
6886319,1384,1220,2009,1805,1745204719857459622
6887319,1378,1158,2041,1820,1745204719857459622
6888319,1365,1078,2086,1846,1745204719857459622
6889319,1344,989,2123,1878,1745204719857459622
6890319,1321,906,2153,1905,1745204719857459622
6891319,1296,841,2172,1916,1745204719857459622
6892319,1273,802,2171,1925,1745204719857459622
6893320,1253,792,2158,1948,1745204719857459622
6894320,1237,805,2128,1993,1745204719857459622
6895320,1232,843,2091,2044,1745204719857459622
6896320,1235,893,2051,2088,1745204719857459622
6897320,1249,949,2005,2112,1745204719857459622
6898320,1270,1013,1957,2104,1745204719857459622
6899320,1300,1099,1906,2063,1745204719857459622
6900320,1337,1208,1865,2010,1745204719857459622
6901320,1382,1322,1838,1964,1745204719857459622
6902320,1430,1428,1839,1938,1745204719857459622
6903320,1481,1506,1861,1931,1745204719857459622
6904320,1530,1536,1904,1947,1745204719857459622
6905321,1568,1538,1955,1988,1745204719857459622
6906321,1605,1526,2005,2043,1745204719857459622
6907322,1635,1492,2053,2113,1745204719857459622
6908321,1656,1434,2092,2194,1745204719857459622
6909321,1676,1352,2123,2282,1745204719857459622
6910321,1694,1248,2139,2378,1745204719857459622
6911321,1710,1155,2150,2432,1745204719857459622
6912321,1728,1080,2144,2473,1745204719857459622
6913321,1745,1021,2128,2486,1745204719857459622
6914321,1760,986,2099,2480,1745204719857459622
6915321,1774,982,2058,2457,1745204719857459622
6916321,1788,1016,2005,2426,1745204719857459622
6917322,1801,1086,1950,2386,1745204719857459622
6918322,1814,1200,1894,2329,1745204719857459622
6919322,1833,1346,1839,2262,1745204719857459622
6920322,1855,1507,1786,2192,1745204719857459622
6921322,1877,1648,1740,2136,1745204719857459622
6922322,1902,1768,1702,2107,1745204719857459622
6923322,1929,1849,1676,2106,1745204719857459622
6924322,1948,1888,1666,2128,1745204719857459622
6925322,1957,1890,1678,2160,1745204719857459622
6926322,1959,1868,1713,2196,1745204719857459622
6927322,1954,1836,1768,2244,1745204719857459622
6928322,1942,1796,1841,2301,1745204719857459622
6929323,1925,1752,1929,2356,1745204719857459622
6930323,1906,1705,2020,2403,1745204719857459622
6931323,1882,1656,2110,2435,1745204719857459622
6932323,1858,1597,2182,2442,1745204719857459622
6933323,1837,1535,2229,2427,1745204719857459622
6934323,1822,1484,2248,2400,1745204719857459622
6935323,1814,1450,2238,2365,1745204719857459622
6936323,1809,1441,2204,2329,1745204719857459622
6937323,1808,1457,2154,2280,1745204719857459622
6938323,1813,1510,2085,2204,1745204719857459622
6939323,1820,1594,2004,2109,1745204719857459622
6940323,1832,1716,1922,2008,1745204719857459622
6941324,1848,1844,1851,1920,1745204719857459622
6942324,1872,1960,1801,1853,1745204719857459622
6943324,1901,2049,1766,1811,1745204719914863889
6944324,1932,2105,1745,1795,1745204719914863889
6945324,1962,2128,1735,1801,1745204719914863889
6946324,1986,2123,1740,1827,1745204719914863889
6947324,2004,2092,1762,1864,1745204719914863889
6948324,2017,2030,1799,1910,1745204719914863889
6949324,2024,1949,1849,1962,1745204719914863889
6950324,2026,1856,1909,2010,1745204719914863889
6951324,2027,1769,1965,2045,1745204719914863889
6952324,2022,1697,2000,2069,1745204719914863889
6953325,2018,1645,2010,2076,1745204719914863889
6954325,2014,1612,1999,2072,1745204719914863889
6955325,2013,1602,1975,2057,1745204719914863889
6956325,2016,1608,1955,2030,1745204719914863889
6957325,2021,1635,1937,1996,1745204719914863889
6958325,2032,1697,1929,1944,1745204719914863889
6959325,2051,1795,1925,1873,1745204719914863889
6960325,2079,1921,1928,1800,1745204719914863889
6961325,2115,2053,1947,1738,1745204719914863889
6962326,2152,2170,1979,1696,1745204719914863889
6963326,2184,2254,2013,1677,1745204719914863889
6964325,2213,2305,2043,1681,1745204719914863889
6965326,2235,2324,2061,1710,1745204719914863889
6966326,2248,2312,2059,1754,1745204719914863889
6967326,2258,2276,2053,1813,1745204719914863889
6968326,2268,2226,2042,1885,1745204719914863889
6969326,2265,2145,2029,1961,1745204719914863889
6970326,2267,2061,2006,2032,1745204719914863889
6971326,2257,1989,1972,2092,1745204719914863889
6972326,2249,1934,1921,2125,1745204719914863889
6973326,2234,1907,1868,2141,1745204719914863889
6974326,2225,1902,1826,2139,1745204719914863889
6975326,2206,1917,1792,2125,1745204719914863889
6976326,2205,1947,1785,2105,1745204719914863889
6977327,2200,1989,1801,2070,1745204719914863889
6978327,2197,2057,1828,2014,1745204719914863889
6979327,2196,2152,1851,1944,1745204719914863889
6980327,2201,2268,1873,1870,1745204719914863889
6981327,2209,2388,1902,1810,1745204719914863889
6982327,2224,2489,1946,1774,1745204719914863889
6983327,2242,2561,1999,1761,1745204719914863889
6984327,2265,2610,2061,1775,1745204719914863889
6985327,2285,2627,2124,1810,1745204719914863889
6986327,2303,2613,2189,1861,1745204719914863889
6987327,2314,2572,2253,1924,1745204719914863889
6988327,2317,2518,2316,1997,1745204719914863889
6989328,2309,2434,2349,2072,1745204719914863889
6990328,2292,2340,2366,2144,1745204719914863889
6991328,2269,2253,2369,2198,1745204719914863889
6992328,2247,2181,2355,2235,1745204719914863889
6993328,2229,2129,2331,2254,1745204719914863889
6994328,2213,2100,2305,2259,1745204719914863889
6995328,2205,2089,2277,2248,1745204719914863889
6996328,2192,2090,2236,2226,1745204719914863889
6997328,2180,2107,2180,2193,1745204719914863889
6998328,2173,2154,2110,2134,1745204719914863889
6999328,2171,2235,2039,2068,1745204719914863889
7000328,2180,2341,1984,1987,1745204719914863889
7001329,2187,2435,1947,1922,1745204719984968614
7002329,2198,2518,1937,1882,1745204719984968614
7003329,2221,2569,1966,1873,1745204719984968614
7004329,2251,2596,2024,1891,1745204719984968614
7005329,2277,2593,2110,1922,1745204719984968614
7006329,2298,2561,2202,1987,1745204719984968614
7007329,2315,2520,2280,2053,1745204719984968614
7008329,2326,2446,2338,2128,1745204719984968614
7009329,2331,2348,2371,2201,1745204719984968614
7010329,2321,2238,2376,2265,1745204719984968614
7011329,2300,2128,2345,2309,1745204719984968614
7012329,2273,2033,2285,2337,1745204719984968614
7013330,2242,1968,2208,2345,1745204719984968614
7014330,2214,1932,2127,2337,1745204719984968614
7015330,2192,1924,2056,2323,1745204719984968614
7016330,2179,1937,1990,2304,1745204719984968614
7017330,2176,1963,1929,2275,1745204719984968614
7018330,2181,2014,1872,2228,1745204719984968614
7019330,2194,2094,1818,2163,1745204719984968614
7020330,2214,2190,1777,2097,1745204719984968614
7021330,2237,2283,1768,2037,1745204719984968614
7022330,2259,2359,1801,2001,1745204719984968614
7023330,2269,2409,1866,1987,1745204719984968614
7024331,2265,2421,1946,1997,1745204719984968614
7025331,2250,2396,2028,2028,1745204719984968614
7026331,2225,2340,2114,2073,1745204719984968614
7027331,2194,2262,2174,2109,1745204719984968614
7028331,2170,2172,2219,2162,1745204719984968614
7029332,2148,2070,2243,2221,1745204719984968614
7030331,2131,1969,2253,2278,1745204719984968614
7031331,2116,1897,2249,2322,1745204719984968614
7032331,2099,1816,2251,2352,1745204719984968614
7033331,2084,1768,2219,2364,1745204719984968614
7034331,2072,1737,2201,2360,1745204719984968614
7035331,2061,1721,2186,2355,1745204719984968614
7036331,2054,1718,2169,2350,1745204719984968614
7037332,2056,1733,2147,2337,1745204719984968614
7038332,2063,1774,2117,2310,1745204719984968614
7039332,2080,1846,2080,2262,1745204719984968614
7040332,2105,1945,2036,2195,1745204719984968614
7041332,2134,2043,2002,2125,1745204719984968614
7042332,2162,2130,1978,2074,1745204719984968614
7043332,2185,2189,1967,2048,1745204719984968614
7044332,2198,2216,1972,2035,1745204719984968614
7045332,2202,2210,1992,2041,1745204719984968614
7046332,2196,2175,2018,2049,1745204719984968614
7047332,2170,2119,2051,2045,1745204719984968614
7048332,2140,2044,2080,2072,1745204719984968614
7049333,2098,1957,2106,2108,1745204719984968614
7050333,2052,1866,2125,2138,1745204719984968614
7051333,2004,1782,2134,2156,1745204719984968614
7052333,1959,1711,2133,2163,1745204719984968614
7053333,1920,1658,2121,2153,1745204719984968614
7054333,1891,1626,2103,2121,1745204719984968614
7055333,1873,1613,2082,2075,1745204719984968614
7056333,1868,1616,2064,2022,1745204719984968614
7057335,1874,1636,2041,1971,1745204719984968614
7058333,1886,1689,2011,1908,1745204719984968614
7059333,1905,1778,1976,1838,1745204720035720754
7060333,1928,1896,1939,1774,1745204720035720754
7061334,1949,2027,1907,1728,1745204720035720754
7062334,1968,2148,1889,1709,1745204720035720754
7063334,1985,2242,1883,1716,1745204720035720754
7064334,1998,2305,1894,1749,1745204720035720754
7065334,2009,2334,1922,1800,1745204720035720754
7066334,2013,2331,1955,1865,1745204720035720754
7067334,2014,2290,1994,1940,1745204720035720754
7068334,2010,2206,2035,2020,1745204720035720754
7069334,2001,2090,2081,2101,1745204720035720754
7070334,1987,1962,2112,2170,1745204720035720754
7071334,1972,1846,2137,2218,1745204720035720754
7072334,1962,1761,2152,2240,1745204720035720754
7073335,1956,1716,2158,2237,1745204720035720754
7074335,1956,1701,2156,2218,1745204720035720754
7075335,1955,1703,2154,2187,1745204720035720754
7076335,1949,1716,2143,2147,1745204720035720754
7077335,1941,1748,2122,2098,1745204720035720754
7078335,1932,1817,2081,2029,1745204720035720754
7079335,1924,1929,2020,1948,1745204720035720754
7080335,1921,2063,1957,1866,1745204720035720754
7081335,1926,2185,1902,1798,1745204720035720754
7082335,1937,2272,1866,1758,1745204720035720754
7083335,1949,2326,1851,1740,1745204720035720754
7084335,1955,2336,1842,1756,1745204720035720754
7085336,1968,2312,1856,1789,1745204720035720754
7086336,1968,2259,1881,1841,1745204720035720754
7087336,1962,2205,1915,1900,1745204720035720754
7088336,1953,2156,1961,1966,1745204720035720754
7089336,1937,2104,2011,2034,1745204720035720754
7090336,1921,2042,2057,2100,1745204720035720754
7091336,1905,1981,2091,2149,1745204720035720754
7092336,1889,1925,2114,2181,1745204720035720754
7093336,1872,1875,2130,2196,1745204720035720754
7094336,1858,1836,2141,2200,1745204720035720754
7095336,1847,1811,2146,2193,1745204720035720754
7096336,1844,1801,2149,2180,1745204720035720754
7097337,1844,1808,2141,2158,1745204720035720754
7098337,1852,1857,2121,2117,1745204720035720754
7099337,1865,1955,2090,2064,1745204720035720754
7100337,1881,2093,2060,2012,1745204720035720754
7101337,1900,2237,2028,1977,1745204720035720754
7102337,1917,2356,2005,1963,1745204720035720754
7103337,1933,2433,1964,1969,1745204720035720754
7104337,1947,2468,1932,1998,1745204720035720754
7105337,1956,2461,1911,2038,1745204720035720754
7106337,1960,2420,1906,2085,1745204720035720754
7107337,1962,2360,1924,2128,1745204720035720754
7108337,1956,2290,1965,2173,1745204720035720754
7109338,1942,2213,2024,2215,1745204720035720754
7110338,1920,2129,2080,2243,1745204720035720754
7111338,1891,2042,2128,2256,1745204720035720754
7112338,1866,1962,2164,2251,1745204720035720754
7113338,1841,1894,2184,2234,1745204720035720754
7114338,1821,1846,2176,2209,1745204720035720754
7115338,1808,1816,2139,2181,1745204720035720754
7116338,1801,1803,2084,2144,1745204720035720754
7117338,1800,1814,2022,2120,1745204720090326609
7118338,1803,1860,1961,2070,1745204720090326609
7119338,1811,1936,1913,2004,1745204720090326609
7120338,1827,2023,1889,1936,1745204720090326609
7121339,1846,2104,1888,1875,1745204720090326609
7122339,1865,2161,1911,1831,1745204720090326609
7123339,1881,2194,1949,1805,1745204720090326609
7124339,1893,2201,1990,1802,1745204720090326609
7125339,1902,2178,2034,1819,1745204720090326609
7126339,1910,2134,2070,1852,1745204720090326609
7127339,1917,2082,2101,1896,1745204720090326609
7128339,1917,2022,2137,1945,1745204720090326609
7129339,1916,1954,2179,1996,1745204720090326609
7130339,1909,1877,2231,2044,1745204720090326609
7131340,1901,1806,2263,2090,1745204720090326609
7132339,1895,1749,2281,2123,1745204720090326609
7133340,1891,1709,2281,2147,1745204720090326609
7134340,1890,1685,2268,2158,1745204720090326609
7135340,1890,1677,2244,2156,1745204720090326609
7136340,1893,1683,2213,2140,1745204720090326609
7137340,1897,1707,2176,2101,1745204720090326609
7138340,1905,1757,2121,2036,1745204720090326609
7139340,1918,1841,2066,1953,1745204720090326609
7140340,1942,1946,2011,1860,1745204720090326609
7141340,1974,2057,1958,1777,1745204720090326609
7142340,2010,2146,1898,1712,1745204720090326609
7143340,2042,2214,1830,1668,1745204720090326609
7144340,2069,2245,1773,1652,1745204720090326609
7145341,2091,2236,1735,1661,1745204720090326609
7146341,2107,2197,1730,1690,1745204720090326609
7147341,2115,2137,1752,1728,1745204720090326609
7148341,2115,2063,1797,1786,1745204720090326609
7149341,2104,1976,1859,1847,1745204720090326609
7150341,2083,1891,1926,1904,1745204720090326609
7151341,2054,1816,1989,1949,1745204720090326609
7152341,2022,1760,2037,1979,1745204720090326609
7153341,2001,1728,2064,1996,1745204720090326609
7154341,1992,1720,2083,2001,1745204720090326609
7155341,1993,1729,2098,1999,1745204720090326609
7156341,2002,1749,2125,1987,1745204720090326609
7157342,2020,1784,2167,1960,1745204720090326609
7158342,2042,1844,2193,1917,1745204720090326609
7159342,2073,1935,2193,1860,1745204720090326609
7160342,2106,2051,2162,1805,1745204720090326609
7161342,2147,2165,2115,1761,1745204720090326609
7162342,2194,2269,2058,1738,1745204720090326609
7163342,2240,2348,1986,1739,1745204720090326609
7164342,2280,2393,1904,1765,1745204720090326609
7165342,2307,2405,1819,1813,1745204720090326609
7166342,2325,2390,1749,1876,1745204720090326609
7167342,2331,2352,1712,1949,1745204720090326609
7168342,2323,2293,1712,2028,1745204720090326609
7169343,2302,2219,1745,2108,1745204720090326609
7170343,2269,2137,1808,2177,1745204720090326609
7171343,2224,2063,1889,2228,1745204720090326609
7172343,2172,2000,1978,2262,1745204720090326609
7173343,2121,1956,2066,2282,1745204720090326609
7174343,2074,1932,2134,2288,1745204720090326609
7175343,2035,1925,2174,2288,1745204720160184565
7176343,2010,1930,2188,2281,1745204720160184565
7177343,1995,1947,2178,2252,1745204720160184565
7178343,1990,1989,2149,2198,1745204720160184565
7179343,1995,2063,2110,2123,1745204720160184565
7180343,2011,2154,2084,2038,1745204720160184565
7181344,2033,2250,2082,1965,1745204720160184565
7182344,2059,2331,2098,1921,1745204720160184565
7183344,2082,2384,2122,1904,1745204720160184565
7184344,2104,2409,2146,1909,1745204720160184565
7185344,2124,2396,2174,1929,1745204720160184565
7186344,2142,2354,2204,1950,1745204720160184565
7187344,2155,2292,2232,1974,1745204720160184565
7188344,2163,2206,2265,2009,1745204720160184565
7189344,2164,2104,2293,2051,1745204720160184565
7190344,2156,1995,2299,2093,1745204720160184565
7191344,2142,1899,2274,2131,1745204720160184565
7192344,2125,1825,2235,2165,1745204720160184565
7193345,2109,1774,2194,2192,1745204720160184565
7194345,2097,1747,2163,2205,1745204720160184565
7195345,2089,1741,2141,2205,1745204720160184565
7196345,2088,1752,2124,2193,1745204720160184565
7197345,2089,1785,2107,2162,1745204720160184565
7198345,2088,1842,2094,2108,1745204720160184565
7199345,2091,1930,2096,2034,1745204720160184565
7200345,2099,2033,2120,1959,1745204720160184565
7201345,2113,2136,2158,1897,1745204720160184565
7202345,2131,2216,2197,1853,1745204720160184565
7203345,2148,2267,2224,1834,1745204720160184565
7204345,2157,2286,2229,1836,1745204720160184565
7205346,2158,2272,2212,1858,1745204720160184565
7206346,2148,2229,2170,1897,1745204720160184565
7207346,2133,2169,2120,1953,1745204720160184565
7208346,2113,2091,2082,2025,1745204720160184565
7209346,2097,2000,2062,2113,1745204720160184565
7210346,2080,1913,2044,2193,1745204720160184565
7211346,2063,1840,2036,2253,1745204720160184565
7212346,2051,1786,2037,2289,1745204720160184565
7213346,2042,1752,2053,2302,1745204720160184565
7214346,2040,1742,2076,2300,1745204720160184565
7215346,2041,1745,2097,2289,1745204720160184565
7216346,2050,1770,2105,2270,1745204720160184565
7217347,2062,1806,2098,2241,1745204720160184565
7218347,2080,1875,2068,2193,1745204720160184565
7219347,2104,1978,2021,2135,1745204720160184565
7220347,2132,2105,1982,2073,1745204720160184565
7221347,2163,2234,1965,2020,1745204720160184565
7222347,2190,2346,1984,1986,1745204720160184565
7223347,2213,2432,2042,1977,1745204720160184565
7224347,2228,2477,2136,1988,1745204720160184565
7225347,2228,2481,2237,2018,1745204720160184565
7226347,2209,2451,2319,2061,1745204720160184565
7227347,2169,2390,2358,2108,1745204720160184565
7228347,2112,2314,2358,2164,1745204720160184565
7229348,2038,2219,2318,2224,1745204720160184565
7230348,1964,2117,2246,2274,1745204720160184565
7231348,1891,2027,2176,2310,1745204720160184565
7232348,1829,1958,2117,2323,1745204720160184565
7233348,1782,1908,2083,2318,1745204720207127470
7234348,1752,1875,2060,2306,1745204720207127470
7235348,1733,1859,2032,2289,1745204720207127470
7236348,1722,1865,1994,2272,1745204720207127470
7237348,1717,1890,1937,2250,1745204720207127470
7238348,1717,1944,1861,2210,1745204720207127470
7239348,1726,2029,1776,2158,1745204720207127470
7240348,1747,2140,1686,2103,1745204720207127470
7241349,1779,2256,1602,2059,1745204720207127470
7242349,1818,2356,1539,2029,1745204720207127470
7243349,1854,2432,1529,2024,1745204720207127470
7244349,1883,2465,1558,2037,1745204720207127470
7245349,1909,2454,1654,2072,1745204720207127470
7246349,1932,2401,1786,2114,1745204720207127470
7247349,1960,2318,1936,2161,1745204720207127470
7248349,1984,2213,2094,2214,1745204720207127470
7249349,2002,2093,2256,2262,1745204720207127470
7250349,2015,1978,2408,2300,1745204720207127470
7251349,2022,1881,2525,2323,1745204720207127470
7252349,2030,1810,2578,2332,1745204720207127470
7253350,2032,1769,2581,2331,1745204720207127470
7254350,2034,1755,2559,2324,1745204720207127470
7255350,2032,1763,2537,2314,1745204720207127470
7256350,2029,1778,2510,2299,1745204720207127470
7257350,2026,1808,2474,2268,1745204720207127470
7258350,2022,1865,2409,2217,1745204720207127470
7259350,2024,1953,2306,2146,1745204720207127470
7260350,2031,2073,2179,2070,1745204720207127470
7261350,2049,2200,2052,2002,1745204720207127470
7262350,2072,2312,1940,1952,1745204720207127470
7263350,2098,2401,1865,1929,1745204720207127470
7264350,2129,2453,1823,1933,1745204720207127470
7265351,2157,2462,1800,1962,1745204720207127470
7266351,2179,2432,1774,2004,1745204720207127470
7267351,2192,2374,1744,2060,1745204720207127470
7268351,2192,2291,1744,2123,1745204720207127470
7269351,2181,2184,1773,2186,1745204720207127470
7270351,2156,2065,1835,2238,1745204720207127470
7271351,2124,1955,1915,2273,1745204720207127470
7272351,2086,1858,1995,2288,1745204720207127470
7273351,2050,1782,2064,2284,1745204720207127470
7274351,2021,1721,2091,2265,1745204720207127470
7275351,2010,1681,2081,2236,1745204720207127470
7276351,2016,1661,2048,2205,1745204720207127470
7277352,2038,1661,2010,2155,1745204720207127470
7278352,2078,1694,1976,2091,1745204720207127470
7279352,2128,1765,1938,2013,1745204720207127470
7280352,2183,1859,1899,1938,1745204720207127470
7281352,2237,1958,1873,1874,1745204720207127470
7282352,2288,2034,1877,1827,1745204720207127470
7283352,2337,2099,1929,1809,1745204720207127470
7284352,2379,2121,2026,1820,1745204720207127470
7285352,2410,2107,2143,1852,1745204720207127470
7286352,2427,2061,2246,1898,1745204720207127470
7287352,2429,1996,2331,1957,1745204720207127470
7288352,2421,1914,2370,2026,1745204720207127470
7289353,2402,1822,2373,2100,1745204720207127470
7290353,2377,1739,2326,2177,1745204720207127470
7291353,2349,1669,2244,2246,1745204720270786055
7292353,2329,1621,2149,2303,1745204720270786055
7293353,2310,1594,2080,2337,1745204720270786055
7294353,2299,1587,2041,2352,1745204720270786055
7295353,2289,1595,2020,2344,1745204720270786055
7296353,2280,1616,1997,2320,1745204720270786055
7297353,2274,1658,1962,2280,1745204720270786055
7298353,2269,1735,1922,2211,1745204720270786055
7299353,2271,1848,1889,2116,1745204720270786055
7300353,2280,1988,1859,2021,1745204720270786055
7301354,2296,2130,1840,1942,1745204720270786055
7302354,2316,2253,1850,1885,1745204720270786055
7303354,2341,2345,1903,1845,1745204720270786055
7304354,2368,2405,1995,1811,1745204720270786055
7305354,2392,2434,2108,1773,1745204720270786055
7306354,2411,2432,2222,1721,1745204720270786055
7307354,2423,2400,2322,1687,1745204720270786055
7308354,2424,2329,2402,1685,1745204720270786055
7309354,2405,2225,2453,1695,1745204720270786055
7310354,2366,2105,2470,1704,1745204720270786055
7311354,2307,1966,2451,1707,1745204720270786055
7312354,2237,1835,2406,1709,1745204720270786055
7313355,2165,1728,2351,1728,1745204720270786055
7314355,2100,1654,2294,1759,1745204720270786055
7315355,2043,1613,2242,1795,1745204720270786055
7316355,2002,1600,2190,1826,1745204720270786055
7317356,1971,1611,2129,1838,1745204720270786055
7318355,1958,1653,2043,1810,1745204720270786055
7319355,1954,1729,1940,1758,1745204720270786055
7320355,1962,1823,1856,1706,1745204720270786055
7321355,1972,1905,1790,1669,1745204720270786055
7322355,1977,1962,1749,1662,1745204720270786055
7323355,1977,1993,1738,1684,1745204720270786055
7324355,1972,1997,1755,1733,1745204720270786055
7325356,1963,1972,1825,1806,1745204720270786055
7326356,1949,1926,1955,1891,1745204720270786055
7327356,1929,1870,2123,1982,1745204720270786055
7328356,1905,1803,2282,2083,1745204720270786055
7329356,1879,1718,2385,2180,1745204720270786055
7330356,1853,1616,2404,2260,1745204720270786055
7331356,1829,1516,2341,2309,1745204720270786055
7332356,1805,1421,2222,2341,1745204720270786055
7333356,1787,1348,2080,2354,1745204720270786055
7334356,1773,1305,1946,2348,1745204720270786055
7335356,1765,1286,1862,2337,1745204720270786055
7336356,1761,1279,1831,2324,1745204720270786055
7337357,1764,1284,1838,2301,1745204720270786055
7338357,1772,1313,1854,2236,1745204720270786055
7339357,1788,1372,1876,2130,1745204720270786055
7340357,1814,1464,1925,2005,1745204720270786055
7341357,1842,1565,1966,1854,1745204720270786055
7342357,1866,1670,2005,1700,1745204720270786055
7343357,1880,1753,2048,1577,1745204720270786055
7344357,1883,1809,2091,1513,1745204720270786055
7345357,1877,1846,2133,1497,1745204720270786055
7346357,1862,1876,2172,1535,1745204720270786055
7347357,1841,1907,2209,1628,1745204720270786055
7348357,1813,1937,2256,1757,1745204720270786055
7349358,1781,1969,2298,1896,1745204720324016089
7350358,1748,2013,2324,2029,1745204720324016089
7351358,1721,2060,2328,2142,1745204720324016089
7352358,1697,2096,2309,2208,1745204720324016089
7353358,1681,2119,2275,2231,1745204720324016089
7354358,1667,2124,2230,2246,1745204720324016089
7355358,1659,2113,2169,2262,1745204720324016089
7356358,1652,2086,2090,2272,1745204720324016089
7357358,1652,2054,2005,2268,1745204720324016089
7358358,1658,2040,1924,2244,1745204720324016089
7359358,1672,2068,1848,2207,1745204720324016089
7360358,1693,2130,1784,2171,1745204720324016089
7361359,1717,2204,1734,2157,1745204720324016089
7362359,1744,2276,1709,2168,1745204720324016089
7363359,1770,2337,1712,2208,1745204720324016089
7364359,1796,2379,1747,2274,1745204720324016089
7365359,1822,2396,1821,2348,1745204720324016089
7366359,1847,2386,1930,2424,1745204720324016089
7367359,1867,2358,2061,2497,1745204720324016089
7368359,1878,2312,2203,2559,1745204720324016089
7369359,1880,2246,2346,2619,1745204720324016089
7370359,1866,2169,2473,2667,1745204720324016089
7371359,1840,2096,2548,2708,1745204720324016089
7372359,1809,2036,2559,2731,1745204720324016089
7373360,1781,1998,2508,2727,1745204720324016089
7374360,1763,1982,2404,2706,1745204720324016089
7375360,1753,1985,2267,2667,1745204720324016089
7376360,1757,2003,2115,2614,1745204720324016089
7377360,1763,2045,1955,2548,1745204720324016089
7378360,1778,2129,1821,2451,1745204720324016089
7379360,1800,2251,1702,2337,1745204720324016089
7380361,1832,2399,1617,2225,1745204720324016089
7381360,1865,2536,1571,2136,1745204720324016089
7382360,1899,2641,1561,2067,1745204720324016089
7383360,1930,2708,1584,2033,1745204720324016089
7384360,1953,2739,1626,2041,1745204720324016089
7385361,1972,2724,1677,2080,1745204720324016089
7386361,1981,2661,1730,2133,1745204720324016089
7387361,1980,2569,1779,2196,1745204720324016089
7388361,1977,2461,1833,2270,1745204720324016089
7389361,1969,2337,1888,2347,1745204720324016089
7390361,1961,2217,1940,2418,1745204720324016089
7391361,1950,2114,1987,2469,1745204720324016089
7392361,1940,2033,2038,2495,1745204720324016089
7393361,1928,1972,2094,2497,1745204720324016089
7394361,1914,1926,2147,2473,1745204720324016089
7395361,1900,1877,2180,2434,1745204720324016089
7396361,1881,1813,2202,2381,1745204720324016089
7397362,1859,1740,2195,2307,1745204720324016089
7398362,1838,1696,2169,2213,1745204720324016089
7399362,1825,1725,2138,2104,1745204720324016089
7400362,1820,1827,2108,2002,1745204720324016089
7401362,1826,1966,2088,1928,1745204720324016089
7402362,1838,2101,2085,1884,1745204720324016089
7403362,1854,2198,2113,1877,1745204720324016089
7404362,1868,2250,2169,1916,1745204720324016089
7405362,1872,2257,2241,1991,1745204720324016089
7406362,1862,2233,2301,2082,1745204720324016089
7407362,1844,2180,2337,2178,1745204720387095721
7408362,1817,2108,2329,2273,1745204720387095721
7409363,1787,2025,2261,2353,1745204720387095721
7410363,1757,1942,2144,2411,1745204720387095721
7411363,1729,1864,1995,2440,1745204720387095721
7412363,1710,1804,1858,2436,1745204720387095721
7413363,1701,1772,1753,2404,1745204720387095721
7414363,1706,1766,1695,2352,1745204720387095721
7415363,1714,1779,1680,2291,1745204720387095721
7416363,1724,1796,1698,2228,1745204720387095721
7417363,1729,1826,1742,2155,1745204720387095721
7418363,1739,1890,1794,2068,1745204720387095721
7419363,1758,1995,1850,1966,1745204720387095721
7420363,1787,2123,1900,1867,1745204720387095721
7421364,1824,2237,1939,1789,1745204720387095721
7422364,1860,2323,1961,1738,1745204720387095721
7423364,1897,2377,1978,1720,1745204720387095721
7424364,1932,2388,1992,1734,1745204720387095721
7425364,1961,2350,2001,1780,1745204720387095721
7426364,1987,2272,2006,1844,1745204720387095721
7427364,2003,2170,2013,1924,1745204720387095721
7428364,2011,2053,2026,2012,1745204720387095721
7429364,2006,1928,2048,2104,1745204720387095721
7430364,1996,1813,2074,2184,1745204720387095721
7431364,1980,1721,2098,2243,1745204720387095721
7432364,1965,1660,2105,2281,1745204720387095721
7433365,1952,1630,2086,2297,1745204720387095721
7434365,1940,1627,2033,2293,1745204720387095721
7435365,1933,1642,1946,2272,1745204720387095721
7436365,1926,1667,1853,2237,1745204720387095721
7437365,1929,1704,1782,2182,1745204720387095721
7438365,1938,1770,1741,2107,1745204720387095721
7439366,1957,1876,1722,2012,1745204720387095721
7440365,1982,2015,1717,1920,1745204720387095721
7441365,2017,2160,1744,1842,1745204720387095721
7442365,2061,2286,1792,1791,1745204720387095721
7443365,2093,2377,1866,1770,1745204720387095721
7444365,2123,2418,1952,1776,1745204720387095721
7445366,2144,2398,2033,1808,1745204720387095721
7446366,2154,2328,2098,1851,1745204720387095721
7447366,2149,2220,2138,1907,1745204720387095721
7448366,2133,2085,2162,1974,1745204720387095721
7449366,2107,1936,2178,2049,1745204720387095721
7450366,2076,1792,2196,2113,1745204720387095721
7451366,2042,1665,2213,2161,1745204720387095721
7452366,2014,1566,2223,2188,1745204720387095721
7453366,1995,1509,2219,2193,1745204720387095721
7454366,1980,1471,2200,2186,1745204720387095721
7455366,1970,1457,2170,2170,1745204720387095721
7456367,1964,1467,2131,2150,1745204720387095721
7457367,1965,1504,2082,2113,1745204720387095721
7458367,1971,1572,2014,2050,1745204720387095721
7459367,1988,1691,1938,1966,1745204720387095721
7460367,2012,1837,1861,1882,1745204720387095721
7461367,2042,1987,1795,1811,1745204720387095721
7462367,2076,2124,1749,1765,1745204720387095721
7463367,2107,2229,1729,1748,1745204720387095721
7464367,2133,2290,1722,1766,1745204720387095721
7465369,2149,2302,1729,1815,1745204720501021295
7466367,2161,2266,1754,1882,1745204720501021295
7467367,2169,2195,1791,1956,1745204720501021295
7468367,2161,2094,1833,2036,1745204720501021295
7469368,2139,1973,1876,2117,1745204720501021295
7470368,2108,1846,1922,2184,1745204720501021295
7471368,2069,1731,1960,2230,1745204720501021295
7472368,2035,1632,1988,2253,1745204720501021295
7473368,2010,1556,2012,2249,1745204720501021295
7474368,2000,1510,2030,2225,1745204720501021295
7475368,2001,1472,2042,2186,1745204720501021295
7476368,2015,1448,2056,2134,1745204720501021295
7477368,2040,1445,2070,2066,1745204720501021295
7478368,2072,1489,2078,1971,1745204720501021295
7479368,2107,1577,2070,1862,1745204720501021295
7480368,2147,1716,2037,1760,1745204720501021295
7481369,2188,1869,1983,1679,1745204720501021295
7482369,2228,2014,1920,1629,1745204720501021295
7483369,2263,2134,1862,1613,1745204720501021295
7484369,2289,2209,1830,1630,1745204720501021295
7485369,2308,2229,1826,1679,1745204720501021295
7486369,2320,2202,1848,1748,1745204720501021295
7487369,2324,2137,1885,1832,1745204720501021295
7488369,2320,2041,1926,1928,1745204720501021295
7489369,2306,1926,1961,2022,1745204720501021295
7490369,2289,1808,1980,2107,1745204720501021295
7491369,2271,1702,1988,2169,1745204720501021295
7492369,2255,1620,1995,2205,1745204720501021295
7493370,2242,1571,2019,2219,1745204720501021295
7494370,2233,1555,2066,2216,1745204720501021295
7495370,2219,1567,2130,2198,1745204720501021295
7496370,2203,1603,2200,2171,1745204720501021295
7497370,2188,1660,2214,2122,1745204720501021295
7498370,2179,1757,2179,2040,1745204720501021295
7499370,2176,1893,2095,1936,1745204720501021295
7500370,2189,2058,2012,1828,1745204720501021295
7501370,2209,2216,1945,1734,1745204720501021295
7502370,2234,2346,1906,1672,1745204720501021295
7503370,2259,2435,1902,1642,1745204720501021295
7504370,2281,2473,1925,1650,1745204720501021295
7505371,2292,2459,1971,1695,1745204720501021295
7506371,2296,2398,2027,1763,1745204720501021295
7507371,2292,2309,2082,1849,1745204720501021295
7508371,2284,2196,2122,1946,1745204720501021295
7509371,2268,2064,2145,2043,1745204720501021295
7510371,2243,1930,2149,2124,1745204720501021295
7511371,2211,1817,2130,2179,1745204720501021295
7512371,2173,1730,2073,2206,1745204720501021295
7513371,2138,1673,1996,2208,1745204720501021295
7514371,2112,1644,1936,2194,1745204720501021295
7515371,2097,1640,1913,2168,1745204720501021295
7516371,2094,1654,1920,2132,1745204720501021295
7517372,2100,1696,1916,2077,1745204720501021295
7518372,2110,1777,1872,1994,1745204720501021295
7519372,2127,1900,1792,1895,1745204720501021295
7520372,2153,2052,1701,1799,1745204720501021295
7521372,2186,2200,1613,1719,1745204720501021295
7522372,2220,2323,1562,1667,1745204720501021295
7523372,2254,2408,1564,1646,1745204720510296679
7524372,2285,2444,1629,1659,1745204720510296679
7525372,2311,2423,1747,1705,1745204720510296679
7526372,2325,2357,1893,1772,1745204720510296679
7527372,2328,2261,2043,1856,1745204720510296679
7528372,2321,2141,2184,1956,1745204720510296679
7529373,2306,1999,2293,2063,1745204720510296679
7530373,2282,1859,2362,2158,1745204720510296679
7531373,2252,1740,2393,2232,1745204720510296679
7532373,2220,1652,2380,2278,1745204720510296679
7533373,2189,1600,2341,2297,1745204720510296679
7534373,2158,1580,2278,2297,1745204720510296679
7535373,2132,1588,2204,2283,1745204720510296679
7536373,2109,1620,2130,2259,1745204720510296679
7537373,2098,1678,2065,2217,1745204720510296679
7538373,2087,1779,2009,2144,1745204720510296679
7539373,2087,1924,1957,2050,1745204720510296679
7540373,2092,2100,1902,1956,1745204720510296679
7541374,2106,2281,1854,1882,1745204720510296679
7542374,2124,2445,1809,1837,1745204720510296679
7543374,2144,2560,1768,1820,1745204720510296679
7544374,2161,2633,1727,1830,1745204720510296679
7545374,2173,2651,1686,1860,1745204720510296679
7546374,2181,2629,1659,1905,1745204720510296679
7547374,2185,2563,1670,1955,1745204720510296679
7548374,2188,2472,1722,2016,1745204720510296679
7549374,2186,2345,1798,2081,1745204720510296679
7550374,2176,2209,1882,2136,1745204720510296679
7551374,2160,2078,1954,2177,1745204720510296679
7552374,2144,1972,2013,2198,1745204720510296679
7553375,2130,1898,2043,2205,1745204720510296679
7554375,2118,1853,2034,2200,1745204720510296679
7555375,2108,1837,1985,2179,1745204720510296679
7556375,2101,1841,1910,2151,1745204720510296679
7557375,2096,1873,1835,2104,1745204720510296679
7558375,2094,1945,1738,2030,1745204720510296679
7559375,2103,2067,1660,1939,1745204720510296679
7560375,2115,2214,1611,1849,1745204720510296679
7561375,2133,2363,1612,1778,1745204720510296679
7562375,2150,2496,1677,1737,1745204720510296679
7563375,2163,2584,1787,1723,1745204720510296679
7564375,2170,2636,1921,1745,1745204720510296679
7565376,2169,2640,2057,1791,1745204720510296679
7566376,2162,2606,2172,1853,1745204720510296679
7567376,2150,2554,2265,1930,1745204720510296679
7568376,2132,2466,2325,2015,1745204720510296679
7569376,2110,2359,2365,2106,1745204720510296679
7570376,2089,2252,2376,2186,1745204720510296679
7571376,2065,2160,2354,2249,1745204720510296679
7572376,2043,2093,2300,2291,1745204720510296679
7573376,2027,2056,2237,2317,1745204720510296679
7574376,2021,2041,2187,2324,1745204720510296679
7575376,2022,2054,2154,2309,1745204720510296679
7576376,2030,2082,2130,2280,1745204720510296679
7577377,2044,2122,2101,2219,1745204720510296679
7578377,2064,2199,2065,2122,1745204720510296679
7579377,2090,2305,2022,2001,1745204720510296679
7580377,2121,2432,1981,1881,1745204720510296679
7581377,2154,2553,1946,1780,1745204720557006096
7582377,2182,2635,1912,1708,1745204720557006096
7583377,2201,2682,1893,1672,1745204720557006096
7584377,2206,2680,1900,1673,1745204720557006096
7585377,2203,2630,1931,1713,1745204720557006096
7586377,2190,2557,1977,1778,1745204720557006096
7587377,2173,2452,2024,1858,1745204720557006096
7588377,2152,2329,2068,1955,1745204720557006096
7589378,2126,2197,2096,2053,1745204720557006096
7590378,2098,2068,2104,2134,1745204720557006096
7591378,2068,1956,2085,2195,1745204720557006096
7592378,2037,1875,2056,2226,1745204720557006096
7593378,2012,1816,2033,2232,1745204720557006096
7594378,1990,1786,2030,2217,1745204720557006096
7595378,1970,1776,2050,2191,1745204720557006096
7596378,1952,1784,2067,2157,1745204720557006096
7597378,1938,1817,2073,2105,1745204720557006096
7598378,1926,1888,2062,2018,1745204720557006096
7599379,1918,1998,2040,1914,1745204720557006096
7600378,1915,2133,2022,1811,1745204720557006096
7601379,1922,2266,2026,1736,1745204720557006096
7602379,1937,2374,2048,1693,1745204720557006096
7603379,1958,2448,2091,1685,1745204720557006096
7604379,1984,2477,2144,1714,1745204720557006096
7605379,2011,2461,2198,1773,1745204720557006096
7606379,2034,2410,2240,1849,1745204720557006096
7607379,2056,2332,2254,1934,1745204720557006096
7608380,2072,2230,2249,2026,1745204720557006096
7609379,2074,2113,2245,2109,1745204720557006096
7610379,2070,1992,2249,2168,1745204720557006096
7611379,2062,1876,2245,2205,1745204720557006096
7612379,2051,1786,2238,2219,1745204720557006096
7613380,2038,1733,2232,2208,1745204720557006096
7614380,2034,1699,2229,2180,1745204720557006096
7615380,2032,1678,2233,2143,1745204720557006096
7616380,2029,1664,2220,2102,1745204720557006096
7617380,2028,1665,2171,2044,1745204720557006096
7618380,2030,1709,2109,1967,1745204720557006096
7619380,2035,1808,2036,1873,1745204720557006096
7620380,2058,1936,1980,1785,1745204720557006096
7621380,2083,2083,1946,1716,1745204720557006096
7622380,2108,2224,1939,1676,1745204720557006096
7623380,2128,2344,1956,1669,1745204720557006096
7624380,2141,2426,1988,1703,1745204720557006096
7625381,2146,2456,2017,1770,1745204720557006096
7626381,2144,2430,2027,1856,1745204720557006096
7627381,2137,2361,2022,1949,1745204720557006096
7628381,2123,2251,2010,2051,1745204720557006096
7629381,2105,2120,1995,2146,1745204720557006096
7630381,2078,1978,1990,2226,1745204720557006096
7631381,2049,1853,1988,2276,1745204720557006096
7632381,2024,1754,1990,2299,1745204720557006096
7633381,1999,1688,1998,2298,1745204720557006096
7634381,1978,1652,1997,2283,1745204720557006096
7635381,1963,1642,2012,2255,1745204720557006096
7636381,1955,1653,2052,2222,1745204720557006096
7637382,1957,1691,2112,2167,1745204720557006096
7638382,1966,1769,2186,2082,1745204720557006096
7639382,1987,1888,2266,1974,1745204720615636967
7640382,2013,2034,2340,1870,1745204720615636967
7641382,2043,2185,2390,1787,1745204720615636967
7642382,2072,2313,2400,1735,1745204720615636967
7643382,2090,2410,2389,1720,1745204720615636967
7644382,2102,2460,2355,1740,1745204720615636967
7645382,2105,2463,2320,1790,1745204720615636967
7646384,2092,2418,2286,1857,1745204720615636967
7647382,2076,2340,2258,1936,1745204720615636967
7648382,2050,2242,2248,2027,1745204720615636967
7649383,2019,2125,2253,2117,1745204720615636967
7650383,1993,2010,2270,2193,1745204720615636967
7651383,1970,1914,2297,2244,1745204720615636967
7652383,1954,1843,2321,2266,1745204720615636967
7653383,1942,1798,2337,2265,1745204720615636967
7654383,1937,1778,2330,2246,1745204720615636967
7655383,1934,1778,2292,2213,1745204720615636967
7656383,1937,1795,2238,2169,1745204720615636967
7657383,1944,1830,2180,2109,1745204720615636967
7658383,1955,1902,2113,2027,1745204720615636967
7659383,1971,2018,2018,1932,1745204720615636967
7660383,1992,2162,1906,1840,1745204720615636967
7661384,2017,2305,1802,1769,1745204720615636967
7662384,2044,2425,1726,1723,1745204720615636967
7663384,2072,2510,1677,1712,1745204720615636967
7664384,2094,2549,1658,1734,1745204720615636967
7665384,2110,2542,1684,1781,1745204720615636967
7666384,2120,2497,1763,1843,1745204720615636967
7667384,2123,2418,1892,1915,1745204720615636967
7668384,2121,2315,2053,1995,1745204720615636967
7669384,2110,2200,2213,2084,1745204720615636967
7670384,2091,2076,2341,2160,1745204720615636967
7671384,2063,1969,2396,2217,1745204720615636967
7672384,2027,1891,2374,2250,1745204720615636967
7673385,1993,1841,2307,2261,1745204720615636967
7674385,1962,1817,2237,2256,1745204720615636967
7675385,1937,1809,2174,2240,1745204720615636967
7676385,1922,1817,2128,2209,1745204720615636967
7677385,1918,1841,2102,2154,1745204720615636967
7678385,1929,1903,2088,2066,1745204720615636967
7679385,1950,1995,2077,1949,1745204720615636967
7680385,1979,2114,2061,1836,1745204720615636967
7681385,2012,2241,2045,1748,1745204720615636967
7682385,2049,2352,2044,1692,1745204720615636967
7683385,2083,2427,2064,1674,1745204720615636967
7684385,2112,2462,2094,1697,1745204720615636967
7685386,2130,2452,2123,1752,1745204720615636967
7686386,2136,2407,2145,1826,1745204720615636967
7687386,2130,2333,2155,1915,1745204720615636967
7688386,2115,2235,2155,2016,1745204720615636967
7689386,2092,2121,2147,2120,1745204720615636967
7690386,2063,2006,2125,2210,1745204720615636967
7691386,2030,1910,2090,2277,1745204720615636967
7692387,2001,1837,2049,2316,1745204720615636967
7693386,1977,1790,2011,2326,1745204720615636967
7694386,1955,1764,1992,2310,1745204720615636967
7695386,1942,1750,1977,2277,1745204720615636967
7696386,1934,1745,1994,2234,1745204720615636967
7697387,1930,1758,2016,2172,1745204720676018342
7698387,1928,1814,2020,2087,1745204720676018342
7699387,1934,1917,2000,1984,1745204720676018342
7700387,1947,2054,1960,1885,1745204720676018342
7701387,1966,2194,1914,1804,1745204720676018342
7702387,1989,2315,1862,1763,1745204720676018342
7703387,2012,2402,1814,1755,1745204720676018342
7704387,2033,2441,1795,1785,1745204720676018342
7705387,2052,2435,1818,1843,1745204720676018342
7706387,2065,2392,1870,1920,1745204720676018342
7707387,2075,2313,1936,2004,1745204720676018342
7708387,2080,2206,2006,2096,1745204720676018342
7709388,2080,2078,2077,2182,1745204720676018342
7710388,2074,1944,2137,2252,1745204720676018342
7711388,2064,1825,2180,2299,1745204720676018342
7712388,2052,1739,2202,2321,1745204720676018342
7713388,2038,1654,2193,2324,1745204720676018342
7714388,2027,1603,2148,2314,1745204720676018342
7715388,2014,1584,2080,2294,1745204720676018342
7716388,2001,1595,2002,2265,1745204720676018342
7717388,1990,1641,1937,2214,1745204720676018342
7718388,1987,1737,1883,2133,1745204720676018342
7719388,1994,1889,1845,2034,1745204720676018342
7720388,2012,2076,1827,1933,1745204720676018342
7721389,2037,2254,1842,1850,1745204720676018342
7722389,2066,2392,1896,1797,1745204720676018342
7723389,2088,2463,1990,1776,1745204720676018342
7724389,2100,2457,2109,1802,1745204720676018342
7725389,2104,2387,2227,1857,1745204720676018342
7726390,2097,2280,2331,1931,1745204720676018342
7727389,2084,2164,2413,2018,1745204720676018342
7728389,2065,2049,2477,2113,1745204720676018342
7729389,2037,1941,2522,2205,1745204720676018342
7730389,2009,1857,2530,2287,1745204720676018342
7731390,1978,1794,2489,2337,1745204720676018342
7732389,1953,1753,2394,2364,1745204720676018342
7733390,1930,1721,2274,2364,1745204720676018342
7734390,1915,1709,2148,2346,1745204720676018342
7735390,1909,1715,2025,2315,1745204720676018342
7736390,1915,1739,1924,2272,1745204720676018342
7737390,1930,1785,1858,2206,1745204720676018342
7738390,1955,1859,1834,2117,1745204720676018342
7739390,1989,1972,1849,2008,1745204720676018342
7740390,2029,2107,1886,1901,1745204720676018342
7741390,2072,2232,1931,1820,1745204720676018342
7742390,2108,2330,1974,1772,1745204720676018342
7743390,2137,2395,2013,1768,1745204720676018342
7744390,2156,2418,2044,1801,1745204720676018342
7745391,2169,2400,2061,1862,1745204720676018342
7746391,2174,2347,2069,1937,1745204720676018342
7747391,2170,2266,2080,2017,1745204720676018342
7748391,2160,2158,2100,2100,1745204720676018342
7749391,2140,2030,2128,2171,1745204720676018342
7750391,2117,1904,2150,2228,1745204720676018342
7751391,2090,1795,2155,2264,1745204720676018342
7752391,2062,1713,2148,2280,1745204720676018342
7753391,2034,1662,2141,2276,1745204720676018342
7754391,2008,1636,2147,2261,1745204720676018342
7755391,1986,1633,2165,2238,1745204720732777720
7756391,1966,1647,2193,2209,1745204720732777720
7757392,1952,1684,2211,2160,1745204720732777720
7758392,1955,1754,2208,2088,1745204720732777720
7759392,1960,1861,2168,1993,1745204720732777720
7760392,1979,1987,2106,1899,1745204720732777720
7761392,2006,2114,2049,1820,1745204720732777720
7762392,2034,2218,2008,1775,1745204720732777720
7763393,2062,2290,1984,1762,1745204720732777720
7764392,2086,2322,1968,1790,1745204720732777720
7765392,2104,2312,1946,1849,1745204720732777720
7766392,2117,2267,1906,1925,1745204720732777720
7767392,2128,2195,1853,2013,1745204720732777720
7768392,2131,2100,1803,2109,1745204720732777720
7769393,2125,1993,1782,2203,1745204720732777720
7770393,2110,1891,1806,2282,1745204720732777720
7771393,2088,1804,1880,2334,1745204720732777720
7772393,2061,1738,1978,2359,1745204720732777720
7773393,2032,1697,2077,2358,1745204720732777720
7774393,2008,1674,2150,2336,1745204720732777720
7775393,1992,1664,2189,2302,1745204720732777720
7776393,1984,1659,2197,2259,1745204720732777720
7777393,1986,1665,2169,2198,1745204720732777720
7778393,1995,1697,2112,2113,1745204720732777720
7779393,2012,1761,2035,2009,1745204720732777720
7780393,2041,1851,1960,1910,1745204720732777720
7781394,2077,1947,1897,1835,1745204720732777720
7782394,2112,2028,1848,1791,1745204720732777720
7783394,2140,2083,1812,1784,1745204720732777720
7784394,2163,2099,1793,1813,1745204720732777720
7785394,2177,2086,1795,1878,1745204720732777720
7786395,2180,2043,1805,1951,1745204720732777720
7787394,2179,1987,1829,2040,1745204720732777720
7788394,2165,1922,1864,2138,1745204720732777720
7789394,2147,1840,1909,2232,1745204720732777720
7790394,2125,1761,1957,2309,1745204720732777720
7791394,2099,1697,1994,2360,1745204720732777720
7792394,2074,1651,2020,2383,1745204720732777720
7793395,2053,1635,2035,2374,1745204720732777720
7794395,2033,1632,2034,2341,1745204720732777720
7795395,2019,1645,2014,2292,1745204720732777720
7796395,2006,1672,1994,2233,1745204720732777720
7797395,2000,1717,1963,2157,1745204720732777720
7798395,1999,1797,1915,2063,1745204720732777720
7799395,2008,1918,1854,1954,1745204720732777720
7800395,2024,2073,1800,1854,1745204720732777720
7801395,2049,2231,1761,1782,1745204720732777720
7802395,2074,2371,1738,1743,1745204720732777720
7803395,2097,2476,1730,1739,1745204720732777720
7804395,2114,2535,1740,1768,1745204720732777720
7805396,2128,2549,1762,1824,1745204720732777720
7806396,2123,2523,1796,1896,1745204720732777720
7807396,2112,2465,1843,1978,1745204720732777720
7808396,2089,2378,1893,2066,1745204720732777720
7809396,2064,2272,1940,2150,1745204720732777720
7810396,2028,2165,1980,2222,1745204720732777720
7811396,1995,2070,2015,2271,1745204720732777720
7812396,1960,1999,2044,2297,1745204720732777720
7813396,1929,1961,2067,2301,1745204720792214677
7814396,1904,1957,2074,2286,1745204720792214677
7815396,1886,1972,2070,2255,1745204720792214677
7816396,1877,1995,2061,2211,1745204720792214677
7817397,1878,2035,2054,2152,1745204720792214677
7818397,1889,2108,2056,2067,1745204720792214677
7819397,1910,2216,2064,1966,1745204720792214677
7820397,1947,2344,2084,1871,1745204720792214677
7821397,1993,2473,2107,1796,1745204720792214677
7822397,2042,2574,2128,1750,1745204720792214677
7823397,2091,2649,2134,1737,1745204720792214677
7824397,2135,2684,2120,1762,1745204720792214677
7825397,2161,2673,2097,1814,1745204720792214677
7826397,2179,2621,2081,1884,1745204720792214677
7827397,2184,2553,2079,1963,1745204720792214677
7828397,2176,2452,2104,2048,1745204720792214677
7829398,2157,2339,2149,2130,1745204720792214677
7830398,2130,2227,2203,2198,1745204720792214677
7831398,2098,2133,2253,2244,1745204720792214677
7832398,2066,2061,2291,2266,1745204720792214677
7833398,2035,2011,2306,2269,1745204720792214677
7834398,2009,1985,2284,2256,1745204720792214677
7835398,1987,1979,2224,2234,1745204720792214677
7836398,1972,1992,2138,2208,1745204720792214677
7837398,1962,2030,2029,2161,1745204720792214677
7838398,1962,2102,1913,2088,1745204720792214677
7839398,1971,2207,1817,1996,1745204720792214677
7840398,1990,2328,1749,1907,1745204720792214677
7841399,2016,2449,1724,1836,1745204720792214677
7842399,2044,2541,1747,1792,1745204720792214677
7843399,2077,2589,1816,1780,1745204720792214677
7844399,2100,2597,1910,1804,1745204720792214677
7845399,2126,2559,2015,1860,1745204720792214677
7846399,2126,2492,2125,1938,1745204720792214677
7847399,2123,2390,2222,2025,1745204720792214677
7848399,2111,2269,2300,2122,1745204720792214677
7849399,2090,2138,2354,2210,1745204720792214677
7850399,2066,2014,2395,2280,1745204720792214677
7851399,2036,1913,2414,2323,1745204720792214677
7852399,2010,1844,2418,2345,1745204720792214677
7853400,1988,1806,2410,2341,1745204720792214677
7854400,1967,1797,2395,2317,1745204720792214677
7855400,1949,1809,2380,2282,1745204720792214677
7856400,1931,1835,2358,2236,1745204720792214677
7857400,1918,1876,2324,2174,1745204720792214677
7858400,1912,1945,2278,2089,1745204720792214677
7859400,1916,2049,2216,1988,1745204720792214677
7860400,1934,2171,2147,1895,1745204720792214677
7861400,1960,2291,2090,1825,1745204720792214677
7862400,1992,2389,2057,1786,1745204720792214677
7863400,2022,2456,2058,1780,1745204720792214677
7864400,2053,2481,2089,1807,1745204720792214677
7865401,2075,2462,2138,1862,1745204720792214677
7866401,2092,2410,2184,1932,1745204720792214677
7867401,2101,2334,2217,2010,1745204720792214677
7868401,2099,2237,2234,2092,1745204720792214677
7869401,2084,2125,2236,2166,1745204720792214677
7870401,2060,2012,2238,2223,1745204720792214677
7871401,2028,1916,2237,2257,1745204720855865345
7872401,1995,1843,2218,2267,1745204720855865345
7873401,1964,1796,2185,2262,1745204720855865345
7874401,1941,1776,2137,2242,1745204720855865345
7875401,1925,1777,2081,2215,1745204720855865345
7876401,1918,1795,2017,2183,1745204720855865345
7877402,1923,1835,1949,2132,1745204720855865345
7878402,1944,1910,1881,2058,1745204720855865345
7879402,1972,2019,1828,1966,1745204720855865345
7880402,2016,2165,1800,1882,1745204720855865345
7881402,2070,2304,1801,1817,1745204720855865345
7882402,2129,2420,1840,1779,1745204720855865345
7883402,2188,2501,1913,1771,1745204720855865345
7884402,2243,2539,2009,1793,1745204720855865345
7885402,2284,2529,2116,1839,1745204720855865345
7886402,2309,2484,2204,1901,1745204720855865345
7887402,2318,2413,2266,1973,1745204720855865345
7888402,2308,2325,2303,2052,1745204720855865345
7889403,2281,2227,2308,2123,1745204720855865345
7890403,2243,2132,2291,2180,1745204720855865345
7891403,2198,2049,2262,2214,1745204720855865345
7892403,2155,1984,2242,2227,1745204720855865345
7893403,2120,1947,2238,2221,1745204720855865345
7894403,2093,1920,2261,2205,1745204720855865345
7895403,2075,1912,2305,2181,1745204720855865345
7896403,2064,1928,2351,2156,1745204720855865345
7897403,2064,1973,2381,2121,1745204720855865345
7898403,2073,2062,2384,2066,1745204720855865345
7899403,2096,2184,2361,1996,1745204720855865345
7900403,2128,2323,2322,1930,1745204720855865345
7901404,2163,2455,2273,1879,1745204720855865345
7902404,2198,2559,2213,1851,1745204720855865345
7903404,2227,2623,2148,1848,1745204720855865345
7904404,2250,2648,2096,1866,1745204720855865345
7905404,2256,2629,2060,1908,1745204720855865345
7906404,2248,2582,2032,1960,1745204720855865345
7907404,2226,2518,2015,2014,1745204720855865345
7908404,2188,2414,2013,2060,1745204720855865345
7909404,2140,2301,2028,2122,1745204720855865345
7910404,2084,2171,2061,2158,1745204720855865345
7911404,2028,2053,2105,2176,1745204720855865345
7912404,1977,1962,2154,2176,1745204720855865345
7913405,1933,1901,2190,2162,1745204720855865345
7914405,1896,1866,2210,2142,1745204720855865345
7915405,1866,1856,2217,2121,1745204720855865345
7916405,1845,1865,2210,2093,1745204720855865345
7917405,1834,1892,2186,2050,1745204720855865345
7918405,1832,1946,2138,1984,1745204720855865345
7919405,1841,2029,2067,1906,1745204720855865345
7920405,1860,2125,1988,1828,1745204720855865345
7921405,1888,2216,1920,1772,1745204720855865345
7922405,1923,2286,1864,1740,1745204720855865345
7923405,1955,2325,1829,1738,1745204720855865345
7924405,1981,2326,1819,1771,1745204720855865345
7925406,1998,2289,1830,1829,1745204720855865345
7926406,2012,2218,1865,1901,1745204720855865345
7927406,2020,2128,1920,1982,1745204720855865345
7928406,2022,2021,1980,2068,1745204720855865345
7929406,2013,1908,2030,2147,1745204720910374379
7930406,1994,1801,2084,2211,1745204720910374379
7931406,1970,1712,2139,2251,1745204720910374379
7932406,1946,1644,2197,2271,1745204720910374379
7933406,1926,1603,2251,2275,1745204720910374379
7934406,1907,1586,2290,2266,1745204720910374379
7935406,1888,1600,2306,2250,1745204720910374379
7936406,1870,1651,2301,2225,1745204720910374379
7937407,1858,1736,2264,2184,1745204720910374379
7938407,1853,1851,2197,2117,1745204720910374379
7939407,1857,1999,2113,2034,1745204720910374379
7940407,1875,2162,2021,1953,1745204720910374379
7941407,1904,2308,1940,1888,1745204720910374379
7942407,1935,2420,1883,1849,1745204720910374379
7943407,1964,2485,1870,1840,1745204720910374379
7944407,1988,2494,1903,1863,1745204720910374379
7945407,2005,2453,1970,1914,1745204720910374379
7946407,2018,2373,2058,1980,1745204720910374379
7947407,2027,2273,2152,2060,1745204720910374379
7948407,2028,2155,2248,2142,1745204720910374379
7949408,2020,2026,2344,2220,1745204720910374379
7950408,2012,1902,2422,2282,1745204720910374379
7951408,2002,1800,2462,2318,1745204720910374379
7952408,1992,1716,2456,2337,1745204720910374379
7953408,1982,1666,2417,2334,1745204720910374379
7954408,1976,1644,2365,2316,1745204720910374379
7955408,1971,1650,2314,2286,1745204720910374379
7956408,1971,1680,2260,2246,1745204720910374379
7957408,1971,1735,2197,2190,1745204720910374379
7958408,1971,1830,2141,2111,1745204720910374379
7959408,1972,1965,2097,2018,1745204720910374379
7960408,1974,2115,2060,1928,1745204720910374379
7961409,1966,2256,2033,1856,1745204720910374379
7962409,1938,2365,2021,1809,1745204720910374379
7963409,1896,2435,2014,1793,1745204720910374379
7964409,1851,2458,2006,1811,1745204720910374379
7965409,1815,2432,2019,1856,1745204720910374379
7966409,1794,2368,2034,1921,1745204720910374379
7967409,1781,2272,2060,1994,1745204720910374379
7968409,1788,2181,2089,2081,1745204720910374379
7969409,1798,2090,2120,2158,1745204720910374379
7970409,1820,2020,2141,2219,1745204720910374379
7971409,1850,1976,2152,2252,1745204720910374379
7972409,1892,1950,2146,2264,1745204720910374379
7973410,1946,1944,2133,2259,1745204720910374379
7974410,2008,1955,2128,2241,1745204720910374379
7975410,2078,1972,2134,2209,1745204720910374379
7976410,2149,1988,2143,2174,1745204720910374379
7977410,2219,2013,2146,2124,1745204720910374379
7978410,2277,2070,2146,2054,1745204720910374379
7979410,2336,2158,2154,1973,1745204720910374379
7980410,2389,2267,2180,1900,1745204720910374379
7981410,2425,2370,2205,1853,1745204720910374379
7982410,2452,2452,2250,1835,1745204720910374379
7983410,2466,2500,2281,1847,1745204720910374379
7984410,2465,2512,2309,1892,1745204720910374379
7985411,2451,2491,2341,1963,1745204720910374379
7986411,2424,2432,2377,2051,1745204720910374379
7987411,2384,2336,2418,2144,1745204720966746312
7988411,2338,2206,2460,2240,1745204720966746312
7989411,2286,2062,2500,2325,1745204720966746312
7990411,2230,1917,2536,2388,1745204720966746312
7991411,2177,1794,2559,2426,1745204720966746312
7992411,2124,1697,2566,2442,1745204720966746312
7993411,2078,1620,2558,2448,1745204720966746312
7994411,2038,1571,2498,2469,1745204720966746312
7995411,2005,1544,2417,2496,1745204720966746312
7996411,1979,1535,2342,2502,1745204720966746312
7997412,1959,1552,2291,2466,1745204720966746312
7998412,1949,1604,2264,2387,1745204720966746312
7999412,1950,1692,2266,2288,1745204720966746312
8000412,1965,1796,2306,2198,1745204720966746312
8001412,1986,1900,2368,2131,1745204720966746312
8002412,2010,1987,2426,2088,1745204720966746312
8003412,2034,2043,2459,2066,1745204720966746312
8004412,2056,2061,2465,2069,1745204720966746312
8005412,2068,2029,2450,2081,1745204720966746312
8006412,2080,1962,2424,2108,1745204720966746312
8007412,2081,1869,2402,2148,1745204720966746312
8008412,2074,1756,2403,2204,1745204720966746312
8009413,2058,1633,2424,2260,1745204720966746312
8010413,2033,1525,2459,2306,1745204720966746312
8011413,2009,1433,2489,2338,1745204720966746312
8012413,1982,1372,2492,2362,1745204720966746312
8013413,1958,1339,2467,2370,1745204720966746312
8014413,1938,1333,2422,2366,1745204720966746312
8015413,1925,1353,2372,2348,1745204720966746312
8016413,1922,1390,2320,2320,1745204720966746312
8017415,1922,1444,2261,2271,1745204720966746312
8018413,1929,1526,2194,2198,1745204720966746312
8019413,1946,1633,2132,2100,1745204720966746312
8020413,1971,1762,2074,2015,1745204720966746312
8021414,2002,1886,2037,1935,1745204720966746312
8022414,2032,1988,2031,1874,1745204720966746312
8023414,2057,2065,2051,1844,1745204720966746312
8024414,2066,2109,2089,1846,1745204720966746312
8025414,2057,2120,2136,1880,1745204720966746312
8026414,2042,2095,2185,1936,1745204720966746312
8027414,2018,2040,2219,2002,1745204720966746312
8028414,1991,1954,2232,2083,1745204720966746312
8029414,1950,1852,2230,2161,1745204720966746312
8030414,1916,1747,2212,2226,1745204720966746312
8031414,1884,1652,2186,2267,1745204720966746312
8032414,1856,1582,2146,2286,1745204720966746312
8033415,1835,1535,2093,2286,1745204720966746312
8034415,1822,1520,2027,2271,1745204720966746312
8035415,1815,1520,1958,2245,1745204720966746312
8036415,1817,1528,1897,2214,1745204720966746312
8037415,1825,1569,1843,2165,1745204720966746312
8038415,1845,1650,1800,2091,1745204720966746312
8039415,1876,1772,1773,2002,1745204720966746312
8040415,1920,1912,1771,1914,1745204720966746312
8041415,1967,2039,1797,1844,1745204720966746312
8042415,2017,2141,1846,1802,1745204720966746312
8043415,2062,2196,1905,1790,1745204720966746312
8044415,2094,2204,1964,1812,1745204720966746312
8045416,2116,2169,2009,1862,1745204721025306714
8046416,2124,2113,2028,1926,1745204721025306714
8047416,2121,2038,2028,2000,1745204721025306714
8048416,2108,1946,2029,2080,1745204721025306714
8049416,2084,1838,2035,2155,1745204721025306714
8050416,2050,1729,2063,2222,1745204721025306714
8051416,2008,1634,2114,2269,1745204721025306714
8052416,1968,1563,2177,2294,1745204721025306714
8053416,1933,1530,2231,2297,1745204721025306714
8054416,1906,1509,2262,2281,1745204721025306714
8055416,1887,1512,2258,2252,1745204721025306714
8056416,1876,1533,2226,2216,1745204721025306714
8057417,1873,1569,2171,2163,1745204721025306714
8058417,1877,1646,2101,2071,1745204721025306714
8059417,1892,1758,2021,1966,1745204721025306714
8060417,1917,1894,1949,1867,1745204721025306714
8061417,1947,2033,1896,1787,1745204721025306714
8062417,1978,2153,1864,1733,1745204721025306714
8063417,2002,2234,1856,1718,1745204721025306714
8064417,2030,2267,1859,1741,1745204721025306714
8065417,2032,2243,1872,1802,1745204721025306714
8066417,2035,2181,1890,1880,1745204721025306714
8067417,2030,2085,1909,1976,1745204721025306714
8068417,2020,1971,1926,2077,1745204721025306714
8069418,2002,1859,1938,2180,1745204721025306714
8070418,1981,1760,1945,2245,1745204721025306714
8071418,1962,1682,1949,2288,1745204721025306714
8072418,1948,1628,1952,2297,1745204721025306714
8073418,1938,1600,1956,2277,1745204721025306714
8074418,1935,1594,1963,2238,1745204721025306714
8075418,1935,1602,1964,2189,1745204721025306714
8076418,1938,1630,1953,2141,1745204721025306714
8077418,1944,1672,1928,2082,1745204721025306714
8078418,1956,1742,1883,2003,1745204721025306714
8079418,1985,1844,1834,1910,1745204721025306714
8080418,2013,1974,1779,1826,1745204721025306714
8081419,2051,2106,1737,1763,1745204721025306714
8082419,2084,2210,1707,1728,1745204721025306714
8083419,2112,2283,1693,1725,1745204721025306714
8084419,2132,2314,1698,1757,1745204721025306714
8085419,2144,2301,1701,1812,1745204721025306714
8086419,2147,2253,1700,1881,1745204721025306714
8087419,2144,2178,1689,1962,1745204721025306714
8088419,2131,2081,1669,2052,1745204721025306714
8089419,2112,1971,1654,2139,1745204721025306714
8090419,2084,1866,1652,2211,1745204721025306714
8091419,2054,1776,1654,2264,1745204721025306714
