timestamp,emg0,emg1,emg2,emg3,pkt_time_ns
7369356,1428,1944,2069,2171,1745203219140587533
7370351,1456,1955,2058,2154,1745203219140587533
7371351,1535,1981,2050,2124,1745203219140587533
7372353,1668,2021,2032,2089,1745203219140587533
7373351,1842,2075,2018,2057,1745203219140587533
7374351,2009,2124,2012,2032,1745203219140587533
7375351,2154,2162,2012,2019,1745203219140587533
7376351,2251,2186,2017,2018,1745203219140587533
7377351,2291,2182,2032,2029,1745203219140587533
7378352,2266,2165,2051,2051,1745203219140587533
7379351,2180,2131,2069,2076,1745203219140587533
7380352,2053,2084,2086,2107,1745203219140587533
7381352,1889,2030,2107,2141,1745203219140587533
7382352,1706,1974,2125,2173,1745203219140587533
7383352,1530,1922,2137,2198,1745203219140587533
7384352,1373,1881,2144,2212,1745203219140587533
7385352,1265,1850,2142,2216,1745203219140587533
7386352,1200,1832,2133,2208,1745203219140587533
7387352,1178,1822,2117,2193,1745203219140587533
7388352,1197,1817,2102,2172,1745203219140587533
7389352,1252,1824,2083,2147,1745203219140587533
7390352,1348,1840,2064,2115,1745203219140587533
7391353,1497,1874,2040,2076,1745203219140587533
7392353,1685,1921,2018,2036,1745203219140587533
7393353,1903,1970,2002,2003,1745203219140587533
7394353,2106,2010,1995,1985,1745203219140587533
7395353,2262,2035,1995,1978,1745203219140587533
7396353,2357,2048,2001,1988,1745203219140587533
7397353,2380,2035,2017,2010,1745203219140587533
7398353,2328,2007,2034,2040,1745203219140587533
7399353,2214,1965,2057,2076,1745203219140587533
7400353,2058,1911,2076,2115,1745203219140587533
7401353,1867,1849,2093,2157,1745203219140587533
7402353,1658,1787,2106,2195,1745203219140587533
7403354,1461,1732,2114,2226,1745203219140587533
7404354,1283,1690,2110,2246,1745203219140587533
7405354,1148,1656,2102,2254,1745203219140587533
7406354,1065,1637,2088,2250,1745203219140587533
7407354,1025,1627,2070,2237,1745203219140587533
7408354,1025,1628,2054,2219,1745203219140587533
7409354,1062,1638,2037,2197,1745203219140587533
7410354,1142,1664,2022,2163,1745203219140587533
7411354,1279,1706,2004,2123,1745203219140587533
7412354,1464,1761,1988,2080,1745203219140587533
7413354,1661,1820,1978,2042,1745203219140587533
7414354,1854,1872,1974,2020,1745203219140587533
7415354,2007,1910,1979,2011,1745203219140587533
7416355,2102,1931,1990,2018,1745203219140587533
7417355,2126,1930,2008,2036,1745203219140587533
7418355,2078,1908,2030,2064,1745203219140587533
7419355,1972,1873,2054,2097,1745203219140587533
7420355,1827,1826,2077,2131,1745203219140587533
7421355,1651,1771,2099,2167,1745203219140587533
7422355,1465,1712,2116,2201,1745203219140587533
7423355,1272,1653,2131,2226,1745203219140587533
7424355,1102,1608,2134,2249,1745203219140587533
7425355,974,1577,2130,2244,1745203219140587533
7426355,899,1561,2122,2237,1745203219140587533
7427355,869,1557,2108,2224,1745203219196802228
7428356,883,1568,2092,2206,1745203219196802228
7429356,936,1589,2076,2181,1745203219196802228
7430356,1032,1626,2057,2147,1745203219196802228
7431356,1185,1678,2036,2102,1745203219196802228
7432356,1385,1746,2017,2059,1745203219196802228
7433356,1603,1818,2005,2019,1745203219196802228
7434356,1817,1883,1997,1993,1745203219196802228
7435356,1992,1936,1998,1982,1745203219196802228
7436356,2114,1971,2004,1986,1745203219196802228
7437356,2168,1986,2014,2002,1745203219196802228
7438356,2153,1981,2029,2028,1745203219196802228
7439357,2072,1958,2044,2058,1745203219196802228
7440357,1957,1928,2060,2090,1745203219196802228
7441357,1802,1885,2075,2128,1745203219196802228
7442357,1626,1837,2086,2162,1745203219196802228
7443357,1460,1791,2109,2185,1745203219196802228
7444357,1302,1756,2098,2198,1745203219196802228
7445357,1192,1734,2096,2203,1745203219196802228
7446357,1128,1722,2090,2196,1745203219196802228
7447357,1110,1729,2078,2184,1745203219196802228
7448357,1139,1748,2066,2161,1745203219196802228
7449357,1204,1777,2052,2133,1745203219196802228
7450357,1309,1819,2034,2096,1745203219196802228
7451357,1469,1868,2009,2052,1745203219196802228
7452358,1667,1942,1991,2009,1745203219196802228
7453358,1893,2014,1975,1973,1745203219196802228
7454358,2108,2079,1965,1952,1745203219196802228
7455358,2279,2128,1964,1942,1745203219196802228
7456358,2392,2157,1972,1945,1745203219196802228
7457358,2436,2169,1985,1964,1745203219196802228
7458358,2406,2158,2000,1992,1745203219196802228
7459358,2314,2129,2017,2027,1745203219196802228
7460358,2178,2087,2035,2066,1745203219196802228
7461358,2002,2028,2053,2105,1745203219196802228
7462358,1808,1963,2068,2140,1745203219196802228
7463358,1614,1897,2077,2169,1745203219196802228
7464359,1455,1840,2080,2185,1745203219196802228
7465359,1327,1800,2078,2193,1745203219196802228
7466359,1249,1777,2072,2186,1745203219196802228
7467359,1216,1769,2062,2174,1745203219196802228
7468359,1224,1770,2050,2157,1745203219196802228
7469359,1267,1782,2036,2139,1745203219196802228
7470359,1352,1805,2021,2116,1745203219196802228
7471359,1488,1844,2002,2084,1745203219196802228
7472359,1666,1894,1984,2053,1745203219196802228
7473359,1869,1950,1971,2025,1745203219196802228
7474359,2064,2004,1966,2010,1745203219196802228
7475359,2213,2043,1969,2008,1745203219196802228
7476360,2301,2067,1978,2025,1745203219196802228
7477360,2319,2067,1992,2056,1745203219196802228
7478360,2267,2043,2010,2094,1745203219196802228
7479360,2157,2001,2032,2142,1745203219196802228
7480360,2006,1947,2057,2195,1745203219196802228
7481360,1824,1886,2081,2246,1745203219196802228
7482360,1620,1823,2101,2288,1745203219196802228
7483360,1422,1766,2113,2320,1745203219196802228
7484360,1241,1713,2128,2337,1745203219196802228
7485360,1097,1672,2129,2341,1745203219252990465
7486360,996,1641,2126,2336,1745203219252990465
7487360,942,1620,2121,2320,1745203219252990465
7488361,924,1616,2112,2297,1745203219252990465
7489361,943,1620,2100,2262,1745203219252990465
7490361,1002,1638,2085,2216,1745203219252990465
7491361,1115,1670,2065,2158,1745203219252990465
7492361,1273,1716,2042,2101,1745203219252990465
7493361,1452,1764,2022,2053,1745203219252990465
7494361,1609,1803,2011,2015,1745203219252990465
7495361,1730,1827,2005,1997,1745203219252990465
7496361,1792,1830,2009,1990,1745203219252990465
7497361,1781,1807,2020,2003,1745203219252990465
7498361,1700,1762,2030,2025,1745203219252990465
7499361,1560,1699,2044,2058,1745203219252990465
7500363,1389,1626,2059,2096,1745203219252990465
7501362,1180,1542,2073,2139,1745203219252990465
7502362,948,1471,2088,2186,1745203219252990465
7503362,740,1396,2095,2216,1745203219252990465
7504362,588,1333,2100,2241,1745203219252990465
7505362,481,1282,2097,2259,1745203219252990465
7506362,386,1244,2091,2273,1745203219252990465
7507362,311,1218,2079,2281,1745203219252990465
7508362,252,1204,2068,2284,1745203219252990465
7509362,208,1203,2057,2279,1745203219252990465
7510362,200,1211,2040,2263,1745203219252990465
7511362,262,1236,2022,2236,1745203219252990465
7512363,389,1274,2004,2206,1745203219252990465
7513363,541,1313,1992,2178,1745203219252990465
7514363,700,1352,1986,2158,1745203219252990465
7515363,828,1377,1984,2148,1745203219252990465
7516363,918,1390,1988,2144,1745203219252990465
7517363,970,1393,1994,2150,1745203219252990465
7518363,970,1379,2004,2170,1745203219252990465
7519363,909,1346,2018,2200,1745203219252990465
7520363,796,1302,2034,2236,1745203219252990465
7521363,640,1241,2057,2282,1745203219252990465
7522363,491,1174,2075,2322,1745203219252990465
7523363,376,1112,2092,2357,1745203219252990465
7524364,292,1054,2104,2382,1745203219252990465
7525364,230,1006,2112,2396,1745203219252990465
7526364,182,970,2113,2401,1745203219252990465
7527364,149,949,2107,2395,1745203219252990465
7528364,123,942,2096,2382,1745203219252990465
7529364,104,946,2080,2356,1745203219252990465
7530364,87,969,2059,2322,1745203219252990465
7531364,120,1009,2028,2278,1745203219252990465
7532364,248,1070,1997,2233,1745203219252990465
7533364,433,1137,1984,2196,1745203219252990465
7534364,619,1198,1969,2176,1745203219252990465
7535365,787,1252,1971,2174,1745203219252990465
7536365,911,1289,1977,2187,1745203219252990465
7537365,981,1310,1993,2206,1745203219252990465
7538365,995,1314,2008,2228,1745203219252990465
7539365,962,1307,2022,2252,1745203219252990465
7540365,891,1290,2037,2272,1745203219252990465
7541365,790,1267,2049,2293,1745203219252990465
7542365,673,1243,2054,2305,1745203219252990465
7543365,558,1221,2052,2304,1745203219313546006
7544365,480,1211,2041,2286,1745203219313546006
7545365,436,1213,2022,2252,1745203219313546006
7546365,443,1229,2000,2206,1745203219313546006
7547365,500,1258,1980,2160,1745203219313546006
7548366,590,1299,1966,2115,1745203219313546006
7549366,718,1349,1955,2068,1745203219313546006
7550366,880,1414,1950,2016,1745203219313546006
7551366,1092,1497,1941,1960,1745203219313546006
7552366,1344,1585,1933,1900,1745203219313546006
7553366,1617,1690,1926,1851,1745203219313546006
7554366,1896,1790,1925,1814,1745203219313546006
7555366,2147,1880,1929,1792,1745203219313546006
7556366,2348,1954,1936,1783,1745203219313546006
7557366,2488,2008,1946,1790,1745203219313546006
7558366,2559,2041,1961,1808,1745203219313546006
7559367,2560,2059,1971,1834,1745203219313546006
7560367,2517,2061,1982,1864,1745203219313546006
7561367,2419,2050,1989,1893,1745203219313546006
7562367,2284,2028,2001,1917,1745203219313546006
7563367,2142,2009,2009,1934,1745203219313546006
7564367,2019,1996,2014,1939,1745203219313546006
7565367,1952,1997,2017,1931,1745203219313546006
7566367,1931,2013,2011,1909,1745203219313546006
7567367,1964,2048,2008,1882,1745203219313546006
7568367,2048,2090,1984,1852,1745203219313546006
7569367,2162,2137,1968,1821,1745203219313546006
7570367,2309,2196,1949,1788,1745203219313546006
7571367,2507,2270,1928,1748,1745203219313546006
7572368,2728,2356,1910,1709,1745203219313546006
7573368,2970,2447,1896,1675,1745203219313546006
7574368,3202,2528,1890,1649,1745203219313546006
7575368,3393,2587,1893,1635,1745203219313546006
7576368,3522,2638,1904,1631,1745203219313546006
7577368,3578,2669,1924,1641,1745203219313546006
7578368,3554,2680,1946,1667,1745203219313546006
7579368,3458,2675,1970,1701,1745203219313546006
7580368,3310,2656,1992,1747,1745203219313546006
7581368,3120,2626,2009,1796,1745203219313546006
7582368,2908,2594,2018,1846,1745203219313546006
7583369,2701,2561,2014,1889,1745203219313546006
7584369,2532,2545,2002,1916,1745203219313546006
7585369,2400,2534,1986,1929,1745203219313546006
7586369,2322,2535,1969,1928,1745203219313546006
7587369,2299,2551,1958,1907,1745203219313546006
7588369,2330,2568,1960,1876,1745203219313546006
7589369,2398,2600,1963,1840,1745203219313546006
7590369,2518,2642,1971,1794,1745203219313546006
7591369,2690,2697,1977,1752,1745203219313546006
7592369,2931,2760,1978,1713,1745203219313546006
7593369,3205,2827,1975,1689,1745203219313546006
7594369,3466,2886,1965,1679,1745203219313546006
7595369,3642,2936,1961,1684,1745203219313546006
7596370,3770,2966,1961,1705,1745203219313546006
7597370,3859,2973,1974,1737,1745203219313546006
7598370,3892,2958,2001,1774,1745203219313546006
7599370,3853,2925,2040,1810,1745203219313546006
7600370,3742,2875,2089,1848,1745203219313546006
7601370,3583,2816,2134,1883,1745203219376656314
7602370,3396,2753,2164,1915,1745203219376656314
7603370,3197,2689,2166,1947,1745203219376656314
7604370,3028,2633,2147,1968,1745203219376656314
7605370,2907,2590,2116,1973,1745203219376656314
7606370,2837,2562,2081,1970,1745203219376656314
7607371,2817,2554,2042,1960,1745203219376656314
7608371,2832,2550,2012,1944,1745203219376656314
7609371,2872,2556,1992,1921,1745203219376656314
7610371,2934,2569,1983,1893,1745203219376656314
7611371,3049,2609,1981,1857,1745203219376656314
7612371,3205,2663,1985,1818,1745203219376656314
7613371,3377,2724,1992,1787,1745203219376656314
7614371,3521,2776,2003,1778,1745203219376656314
7615373,3601,2798,2017,1752,1745203219376656314
7616371,3616,2826,2033,1753,1745203219376656314
7617371,3562,2815,2057,1764,1745203219376656314
7618371,3429,2792,2072,1792,1745203219376656314
7619371,3261,2738,2088,1824,1745203219376656314
7620372,3057,2683,2096,1866,1745203219376656314
7621372,2846,2620,2112,1912,1745203219376656314
7622372,2628,2559,2121,1955,1745203219376656314
7623372,2441,2498,2129,1987,1745203219376656314
7624372,2277,2445,2139,2010,1745203219376656314
7625372,2164,2412,2138,2020,1745203219376656314
7626372,2106,2394,2137,2025,1745203219376656314
7627372,2102,2395,2131,2019,1745203219376656314
7628372,2152,2412,2122,2011,1745203219376656314
7629372,2246,2441,2117,2001,1745203219376656314
7630372,2384,2483,2107,1979,1745203219376656314
7631372,2571,2542,2094,1950,1745203219376656314
7632373,2816,2605,2083,1914,1745203219376656314
7633373,3081,2674,2077,1885,1745203219376656314
7634373,3323,2738,2078,1865,1745203219376656314
7635373,3512,2782,2091,1855,1745203219376656314
7636373,3612,2803,2109,1859,1745203219376656314
7637373,3632,2802,2125,1873,1745203219376656314
7638373,3568,2780,2142,1901,1745203219376656314
7639373,3423,2737,2153,1933,1745203219376656314
7640373,3237,2675,2162,1970,1745203219376656314
7641373,3021,2597,2164,2010,1745203219376656314
7642373,2797,2521,2169,2050,1745203219376656314
7643373,2585,2437,2169,2081,1745203219376656314
7644374,2419,2370,2165,2104,1745203219376656314
7645374,2297,2329,2162,2109,1745203219376656314
7646374,2225,2310,2163,2102,1745203219376656314
7647374,2206,2313,2173,2083,1745203219376656314
7648374,2233,2330,2196,2059,1745203219376656314
7649374,2298,2358,2228,2031,1745203219376656314
7650374,2405,2396,2261,2000,1745203219376656314
7651374,2565,2439,2288,1962,1745203219376656314
7652374,2785,2478,2309,1923,1745203219376656314
7653374,3028,2508,2322,1893,1745203219376656314
7654374,3257,2536,2324,1876,1745203219376656314
7655374,3440,2558,2324,1874,1745203219376656314
7656375,3564,2566,2315,1887,1745203219376656314
7657375,3605,2567,2304,1920,1745203219376656314
7658375,3587,2557,2294,1962,1745203219376656314
7659375,3521,2524,2286,2011,1745203219434769377
7660375,3402,2482,2280,2067,1745203219434769377
7661375,3253,2428,2277,2124,1745203219434769377
7662375,3082,2368,2274,2173,1745203219434769377
7663375,2909,2305,2262,2216,1745203219434769377
7664375,2770,2258,2244,2242,1745203219434769377
7665375,2678,2225,2219,2254,1745203219434769377
7666375,2642,2208,2196,2249,1745203219434769377
7667375,2658,2210,2173,2238,1745203219434769377
7668376,2723,2229,2152,2221,1745203219434769377
7669376,2819,2261,2134,2208,1745203219434769377
7670376,2955,2312,2117,2196,1745203219434769377
7671376,3149,2384,2102,2185,1745203219434769377
7672376,3396,2468,2089,2178,1745203219434769377
7673376,3605,2557,2081,2173,1745203219434769377
7674376,3754,2626,2077,2171,1745203219434769377
7675376,3855,2684,2083,2173,1745203219434769377
7676376,3916,2716,2088,2180,1745203219434769377
7677376,3966,2719,2098,2190,1745203219434769377
7678378,3915,2692,2104,2200,1745203219434769377
7679376,3758,2650,2106,2209,1745203219434769377
7680377,3539,2592,2101,2213,1745203219434769377
7681377,3248,2520,2094,2209,1745203219434769377
7682377,2938,2424,2078,2205,1745203219434769377
7683378,2626,2324,2061,2193,1745203219434769377
7684377,2347,2232,2043,2177,1745203219434769377
7685377,2110,2156,2026,2154,1745203219434769377
7686377,1918,2097,2009,2124,1745203219434769377
7687377,1775,2053,1990,2084,1745203219434769377
7688377,1665,2022,1970,2042,1745203219434769377
7689377,1587,2003,1949,1999,1745203219434769377
7690377,1541,2000,1926,1945,1745203219434769377
7691377,1544,2020,1897,1883,1745203219434769377
7692378,1601,2067,1865,1822,1745203219434769377
7693378,1692,2130,1839,1773,1745203219434769377
7694378,1782,2194,1817,1741,1745203219434769377
7695378,1849,2248,1810,1732,1745203219434769377
7696378,1877,2277,1813,1747,1745203219434769377
7697378,1853,2281,1828,1778,1745203219434769377
7698378,1785,2254,1848,1829,1745203219434769377
7699378,1682,2205,1874,1886,1745203219434769377
7700378,1545,2140,1901,1947,1745203219434769377
7701378,1410,2067,1941,2011,1745203219434769377
7702378,1257,1986,1984,2077,1745203219434769377
7703379,1104,1914,2022,2137,1745203219434769377
7704379,973,1853,2060,2188,1745203219434769377
7705379,884,1804,2082,2228,1745203219434769377
7706379,846,1765,2098,2262,1745203219434769377
7707379,853,1737,2110,2292,1745203219434769377
7708379,902,1718,2121,2323,1745203219434769377
7709379,976,1709,2133,2353,1745203219434769377
7710379,1076,1711,2137,2372,1745203219434769377
7711379,1222,1730,2128,2377,1745203219434769377
7712379,1420,1764,2114,2371,1745203219434769377
7713379,1638,1809,2097,2360,1745203219434769377
7714379,1861,1856,2086,2354,1745203219434769377
7715379,2054,1896,2077,2352,1745203219434769377
7716380,2193,1928,2073,2354,1745203219434769377
7717380,2267,1943,2066,2358,1745203219490601940
7718380,2272,1943,2057,2362,1745203219490601940
7719380,2214,1928,2040,2369,1745203219490601940
7720380,2113,1902,2021,2374,1745203219490601940
7721380,1979,1872,2001,2375,1745203219490601940
7722380,1826,1849,1984,2364,1745203219490601940
7723380,1677,1835,1967,2325,1745203219490601940
7724380,1558,1828,1957,2270,1745203219490601940
7725380,1499,1839,1948,2206,1745203219490601940
7726380,1490,1872,1930,2145,1745203219490601940
7727380,1536,1915,1897,2090,1745203219490601940
7728381,1645,1965,1865,2044,1745203219490601940
7729381,1797,2013,1838,2005,1745203219490601940
7730381,1997,2074,1822,1968,1745203219490601940
7731381,2261,2148,1809,1922,1745203219490601940
7732381,2561,2230,1798,1878,1745203219490601940
7733381,2898,2317,1786,1837,1745203219490601940
7734381,3213,2403,1776,1810,1745203219490601940
7735381,3453,2472,1766,1795,1745203219490601940
7736381,3583,2516,1758,1793,1745203219490601940
7737382,3578,2537,1754,1803,1745203219490601940
7738382,3427,2533,1750,1828,1745203219490601940
7739382,3176,2510,1751,1864,1745203219490601940
7740382,2866,2470,1756,1908,1745203219490601940
7741382,2526,2410,1768,1950,1745203219490601940
7742382,2157,2339,1786,1997,1745203219490601940
7743382,1791,2264,1797,2036,1745203219490601940
7744382,1469,2198,1803,2062,1745203219490601940
7745382,1192,2146,1806,2069,1745203219490601940
7746382,982,2110,1806,2072,1745203219490601940
7747382,845,2108,1807,2059,1745203219490601940
7748382,777,2157,1814,2041,1745203219490601940
7749382,779,2241,1830,2014,1745203219490601940
7750382,859,2339,1861,1974,1745203219490601940
7751383,1032,2449,1907,1924,1745203219490601940
7752383,1284,2559,1966,1873,1745203219490601940
7753383,1572,2660,2034,1832,1745203219490601940
7754383,1859,2740,2099,1808,1745203219490601940
7755383,2099,2781,2153,1804,1745203219490601940
7756383,2258,2777,2196,1821,1745203219490601940
7757383,2316,2724,2230,1856,1745203219490601940
7758383,2264,2633,2259,1904,1745203219490601940
7759383,2108,2521,2284,1963,1745203219490601940
7760383,1880,2381,2307,2029,1745203219490601940
7761383,1606,2235,2336,2102,1745203219490601940
7762383,1308,2086,2363,2172,1745203219490601940
7763383,1010,1942,2382,2238,1745203219490601940
7764384,784,1816,2395,2294,1745203219490601940
7765384,619,1716,2399,2336,1745203219490601940
7766384,504,1646,2401,2365,1745203219490601940
7767384,405,1599,2395,2379,1745203219490601940
7768384,357,1566,2384,2384,1745203219490601940
7769384,386,1547,2370,2379,1745203219490601940
7770384,508,1538,2351,2359,1745203219490601940
7771384,718,1542,2325,2325,1745203219490601940
7772384,1025,1565,2293,2285,1745203219490601940
7773384,1381,1599,2256,2248,1745203219490601940
7774384,1737,1635,2226,2221,1745203219490601940
7775384,2060,1668,2205,2209,1745203219554342348
7776385,2312,1682,2197,2210,1745203219554342348
7777385,2466,1682,2198,2228,1745203219554342348
7778385,2514,1646,2204,2248,1745203219554342348
7779385,2455,1589,2210,2269,1745203219554342348
7780385,2306,1523,2214,2297,1745203219554342348
7781385,2088,1436,2213,2331,1745203219554342348
7782385,1822,1337,2212,2368,1745203219554342348
7783385,1544,1231,2216,2400,1745203219554342348
7784385,1292,1133,2213,2420,1745203219554342348
7785385,1076,1050,2203,2426,1745203219554342348
7786385,914,982,2180,2421,1745203219554342348
7787386,814,933,2147,2405,1745203219554342348
7788386,774,899,2107,2385,1745203219554342348
7789386,798,880,2061,2357,1745203219554342348
7790387,885,876,2014,2310,1745203219554342348
7791386,1061,891,1969,2245,1745203219554342348
7792386,1308,928,1925,2170,1745203219554342348
7793386,1584,979,1893,2098,1745203219554342348
7794386,1849,1040,1872,2036,1745203219554342348
7795386,2054,1104,1864,1998,1745203219554342348
7796386,2172,1165,1869,1977,1745203219554342348
7797386,2191,1213,1882,1978,1745203219554342348
7798386,2105,1233,1904,2000,1745203219554342348
7799386,1937,1226,1925,2031,1745203219554342348
7800387,1729,1197,1946,2072,1745203219554342348
7801387,1500,1152,1976,2115,1745203219554342348
7802387,1254,1096,2009,2162,1745203219554342348
7803387,1019,1036,2049,2201,1745203219554342348
7804387,819,982,2083,2234,1745203219554342348
7805387,678,945,2109,2258,1745203219554342348
7806387,603,925,2121,2275,1745203219554342348
7807387,596,925,2113,2280,1745203219554342348
7808387,657,943,2090,2278,1745203219554342348
7809387,772,973,2059,2268,1745203219554342348
7810387,938,1017,2020,2245,1745203219554342348
7811387,1166,1073,1981,2205,1745203219554342348
7812388,1459,1158,1948,2154,1745203219554342348
7813388,1783,1238,1924,2107,1745203219554342348
7814388,2118,1305,1913,2069,1745203219554342348
7815388,2410,1364,1917,2044,1745203219554342348
7816388,2622,1417,1946,2038,1745203219554342348
7817388,2738,1457,1990,2049,1745203219554342348
7818388,2725,1477,2050,2070,1745203219554342348
7819388,2587,1478,2115,2096,1745203219554342348
7820388,2372,1465,2186,2125,1745203219554342348
7821388,2091,1440,2252,2161,1745203219554342348
7822388,1778,1408,2308,2198,1745203219554342348
7823388,1472,1372,2346,2234,1745203219554342348
7824389,1189,1341,2361,2259,1745203219554342348
7825389,955,1322,2354,2272,1745203219554342348
7826389,774,1318,2330,2264,1745203219554342348
7827389,649,1329,2287,2217,1745203219554342348
7828389,574,1350,2233,2132,1745203219554342348
7829389,546,1378,2176,2029,1745203219554342348
7830389,571,1417,2108,1930,1745203219554342348
7831389,667,1470,2034,1848,1745203219554342348
7832389,843,1535,1961,1792,1745203219554342348
7833389,1062,1587,1904,1772,1745203219612611711
7834389,1284,1622,1875,1777,1745203219612611711
7835389,1473,1635,1872,1792,1745203219612611711
7836390,1598,1635,1887,1785,1745203219612611711
7837390,1661,1629,1917,1781,1745203219612611711
7838390,1651,1619,1956,1772,1745203219612611711
7839390,1569,1601,2003,1777,1745203219612611711
7840390,1444,1580,2054,1803,1745203219612611711
7841390,1268,1557,2105,1844,1745203219612611711
7842390,1061,1539,2154,1898,1745203219612611711
7843390,850,1535,2192,1948,1745203219612611711
7844390,661,1537,2214,1988,1745203219612611711
7845390,514,1554,2229,2018,1745203219612611711
7846390,432,1579,2229,2025,1745203219612611711
7847390,393,1616,2213,2018,1745203219612611711
7848391,408,1661,2185,1993,1745203219612611711
7849391,477,1708,2152,1950,1745203219612611711
7850391,594,1762,2114,1883,1745203219612611711
7851391,789,1829,2070,1808,1745203219612611711
7852391,1049,1911,2019,1738,1745203219612611711
7853391,1344,2006,1978,1683,1745203219612611711
7854391,1640,2106,1946,1646,1745203219612611711
7855391,1901,2195,1924,1618,1745203219612611711
7856391,2104,2270,1921,1584,1745203219612611711
7857391,2240,2316,1934,1555,1745203219612611711
7858391,2299,2345,1955,1540,1745203219612611711
7859391,2305,2353,1952,1535,1745203219612611711
7860392,2266,2341,1929,1529,1745203219612611711
7861392,2177,2300,1894,1518,1745203219612611711
7862392,2044,2247,1887,1519,1745203219612611711
7863392,1889,2186,1900,1530,1745203219612611711
7864392,1743,2133,1917,1539,1745203219612611711
7865392,1628,2101,1925,1558,1745203219612611711
7866392,1560,2074,1933,1569,1745203219612611711
7867392,1540,2072,1934,1554,1745203219612611711
7868392,1562,2086,1930,1506,1745203219612611711
7869392,1616,2122,1920,1425,1745203219612611711
7870392,1704,2178,1908,1334,1745203219612611711
7871392,1843,2261,1884,1241,1745203219612611711
7872393,2041,2369,1851,1145,1745203219612611711
7873393,2269,2503,1812,1056,1745203219612611711
7874393,2444,2677,1784,977,1745203219612611711
7875393,2513,2888,1769,948,1745203219612611711
7876393,2466,3096,1768,956,1745203219612611711
7877393,2325,3275,1770,996,1745203219612611711
7878393,2134,3416,1770,1056,1745203219612611711
7879393,1924,3529,1787,1115,1745203219612611711
7880393,1715,3611,1808,1184,1745203219612611711
7881393,1516,3685,1833,1253,1745203219612611711
7882393,1312,3735,1859,1304,1745203219612611711
7883393,1130,3757,1877,1338,1745203219612611711
7884394,992,3744,1890,1382,1745203219612611711
7885394,912,3686,1899,1443,1745203219612611711
7886394,888,3589,1907,1502,1745203219612611711
7887394,928,3494,1925,1535,1745203219612611711
7888394,1030,3395,1959,1542,1745203219612611711
7889394,1181,3299,1998,1546,1745203219612611711
7890394,1376,3200,2029,1552,1745203219612611711
7891394,1622,3123,2041,1555,1745203219666868872
7892394,1941,3058,2035,1534,1745203219666868872
7893394,2303,2986,2028,1491,1745203219666868872
7894394,2653,2890,2045,1475,1745203219666868872
7895394,2969,2782,2082,1516,1745203219666868872
7896395,3223,2670,2118,1591,1745203219666868872
7897395,3396,2559,2140,1684,1745203219666868872
7898395,3477,2444,2145,1776,1745203219666868872
7899395,3475,2325,2137,1856,1745203219666868872
7900395,3405,2201,2129,1916,1745203219666868872
7901395,3284,2071,2128,1945,1745203219666868872
7902395,3120,1929,2132,1957,1745203219666868872
7903395,2936,1792,2140,1973,1745203219666868872
7904395,2763,1667,2145,2003,1745203219666868872
7905395,2625,1560,2147,2061,1745203219666868872
7906395,2546,1481,2151,2141,1745203219666868872
7907395,2518,1414,2140,2230,1745203219666868872
7908396,2546,1370,2141,2317,1745203219666868872
7909396,2606,1349,2145,2388,1745203219666868872
7910396,2707,1349,2137,2444,1745203219666868872
7911396,2860,1378,2114,2481,1745203219666868872
7912397,3063,1433,2081,2506,1745203219666868872
7913396,3297,1500,2045,2533,1745203219666868872
7914397,3512,1547,2016,2559,1745203219666868872
7915396,3650,1557,1994,2592,1745203219666868872
7916396,3724,1535,1977,2626,1745203219666868872
7917396,3706,1490,1966,2680,1745203219666868872
7918396,3593,1436,1969,2753,1745203219666868872
7919396,3410,1369,1969,2829,1745203219666868872
7920397,3163,1305,1986,2899,1745203219666868872
7921397,2877,1251,2009,2957,1745203219666868872
7922397,2571,1208,2034,3001,1745203219666868872
7923397,2278,1181,2059,3031,1745203219666868872
7924397,2005,1178,2072,3053,1745203219666868872
7925397,1787,1188,2064,3052,1745203219666868872
7926397,1626,1202,2029,3032,1745203219666868872
7927397,1532,1219,1978,2992,1745203219666868872
7928397,1486,1258,1914,2942,1745203219666868872
7929397,1481,1326,1846,2889,1745203219666868872
7930397,1518,1425,1786,2828,1745203219666868872
7931398,1610,1540,1736,2761,1745203219666868872
7932398,1765,1680,1707,2694,1745203219666868872
7933398,1960,1821,1706,2636,1745203219666868872
7934398,2178,1947,1739,2580,1745203219666868872
7935398,2369,2030,1805,2544,1745203219666868872
7936398,2485,2060,1903,2515,1745203219666868872
7937398,2489,2036,2004,2512,1745203219666868872
7938398,2390,1972,2099,2522,1745203219666868872
7939398,2235,1885,2181,2542,1745203219666868872
7940398,2041,1785,2243,2568,1745203219666868872
7941398,1818,1682,2285,2600,1745203219666868872
7942398,1570,1581,2312,2646,1745203219666868872
7943398,1339,1496,2324,2658,1745203219666868872
7944399,1140,1421,2323,2656,1745203219666868872
7945399,983,1368,2315,2640,1745203219666868872
7946399,866,1323,2301,2613,1745203219666868872
7947399,781,1286,2278,2572,1745203219666868872
7948399,729,1259,2257,2531,1745203219666868872
7949399,704,1243,2243,2484,1745203219727446339
7950399,707,1243,2232,2446,1745203219727446339
7951399,762,1269,2218,2417,1745203219727446339
7952399,873,1326,2204,2395,1745203219727446339
7953399,1020,1395,2192,2374,1745203219727446339
7954399,1170,1464,2186,2356,1745203219727446339
7955399,1286,1535,2183,2352,1745203219727446339
7956400,1353,1627,2185,2355,1745203219727446339
7957400,1363,1740,2195,2370,1745203219727446339
7958400,1314,1848,2208,2396,1745203219727446339
7959400,1217,1934,2218,2432,1745203219727446339
7960400,1090,1962,2225,2473,1745203219727446339
7961400,939,1924,2228,2516,1745203219727446339
7962400,773,1826,2233,2552,1745203219727446339
7963400,620,1706,2236,2562,1745203219727446339
7964400,511,1595,2229,2559,1745203219727446339
7965400,467,1523,2209,2512,1745203219727446339
7966400,493,1481,2177,2450,1745203219727446339
7967400,598,1480,2134,2388,1745203219727446339
7968401,786,1520,2082,2323,1745203219727446339
7969401,1026,1582,2025,2258,1745203219727446339
7970401,1307,1675,1965,2203,1745203219727446339
7971401,1627,1794,1898,2150,1745203219727446339
7972401,1996,1940,1822,2083,1745203219727446339
7973401,2390,2097,1749,1998,1745203219727446339
7974401,2765,2252,1683,1909,1745203219727446339
7975401,3107,2384,1636,1828,1745203219727446339
7976401,3375,2496,1614,1766,1745203219727446339
7977401,3566,2577,1624,1733,1745203219727446339
7978401,3676,2643,1660,1731,1745203219727446339
7979401,3678,2696,1716,1758,1745203219727446339
7980402,3614,2732,1779,1811,1745203219727446339
7981402,3485,2753,1852,1878,1745203219727446339
7982402,3307,2752,1933,1952,1745203219727446339
7983402,3117,2739,2016,2021,1745203219727446339
7984402,2948,2723,2086,2081,1745203219727446339
7985402,2810,2710,2132,2129,1745203219727446339
7986402,2709,2702,2161,2174,1745203219727446339
7987402,2658,2691,2173,2224,1745203219727446339
7988402,2653,2676,2174,2280,1745203219727446339
7989402,2674,2669,2162,2333,1745203219727446339
7990402,2725,2671,2134,2366,1745203219727446339
7991402,2832,2681,2091,2369,1745203219727446339
7992403,3001,2700,2034,2346,1745203219727446339
7993403,3209,2725,1978,2304,1745203219727446339
7994403,3418,2748,1933,2258,1745203219727446339
7995403,3588,2761,1901,2217,1745203219727446339
7996403,3716,2757,1877,2186,1745203219727446339
7997403,3776,2740,1862,2165,1745203219727446339
7998403,3764,2705,1858,2157,1745203219727446339
7999403,3697,2657,1866,2158,1745203219727446339
8000403,3589,2602,1877,2170,1745203219727446339
8001403,3459,2554,1889,2188,1745203219727446339
8002403,3296,2493,1900,2212,1745203219727446339
8003403,3129,2441,1913,2236,1745203219727446339
8004404,2985,2396,1922,2246,1745203219727446339
8005404,2876,2366,1922,2234,1745203219727446339
8006404,2808,2352,1922,2205,1745203219727446339
8007404,2774,2345,1922,2172,1745203219783881240
8008404,2764,2341,1914,2140,1745203219783881240
8009404,2770,2335,1906,2121,1745203219783881240
8010404,2800,2332,1900,2107,1745203219783881240
8011404,2875,2334,1900,2095,1745203219783881240
8012404,3000,2345,1905,2084,1745203219783881240
8013404,3145,2356,1914,2085,1745203219783881240
8014404,3273,2370,1929,2093,1745203219783881240
8015404,3362,2372,1953,2109,1745203219783881240
8016405,3401,2361,1986,2129,1745203219783881240
8017405,3378,2339,2030,2150,1745203219783881240
8018405,3306,2310,2082,2173,1745203219783881240
8019405,3200,2281,2129,2195,1745203219783881240
8020405,3070,2248,2171,2210,1745203219783881240
8021405,2922,2214,2204,2217,1745203219783881240
8022405,2767,2184,2237,2202,1745203219783881240
8023405,2627,2161,2261,2171,1745203219783881240
8024405,2526,2149,2281,2132,1745203219783881240
8025405,2462,2149,2294,2088,1745203219783881240
8026405,2444,2164,2297,2037,1745203219783881240
8027406,2481,2193,2291,1988,1745203219783881240
8028406,2556,2236,2275,1949,1745203219783881240
8029407,2652,2293,2246,1906,1745203219783881240
8030407,2775,2378,2219,1878,1745203219783881240
8031407,2936,2479,2185,1857,1745203219783881240
8032406,3138,2586,2146,1850,1745203219783881240
8033406,3368,2693,2114,1850,1745203219783881240
8034406,3553,2789,2081,1867,1745203219783881240
8035406,3684,2858,2067,1899,1745203219783881240
8036406,3754,2904,2061,1945,1745203219783881240
8037406,3737,2928,2068,1998,1745203219783881240
8038406,3635,2933,2082,2049,1745203219783881240
8039406,3486,2923,2097,2086,1745203219783881240
8040407,3298,2898,2106,2114,1745203219783881240
8041407,3092,2858,2106,2133,1745203219783881240
8042407,2884,2805,2090,2145,1745203219783881240
8043407,2689,2744,2058,2150,1745203219783881240
8044407,2532,2685,2005,2145,1745203219783881240
8045407,2426,2637,1936,2131,1745203219783881240
8046407,2356,2605,1856,2105,1745203219783881240
8047407,2356,2596,1777,2074,1745203219783881240
8048407,2416,2613,1712,2039,1745203219783881240
8049407,2522,2650,1670,2005,1745203219783881240
8050407,2653,2705,1656,1970,1745203219783881240
8051407,2841,2778,1668,1929,1745203219783881240
8052408,3074,2864,1704,1874,1745203219783881240
8053408,3333,2958,1764,1811,1745203219783881240
8054408,3564,3044,1811,1763,1745203219783881240
8055408,3720,3118,1837,1737,1745203219783881240
8056408,3830,3180,1847,1729,1745203219783881240
8057408,3905,3224,1854,1736,1745203219783881240
8058408,3957,3243,1870,1755,1745203219783881240
8059408,3965,3236,1908,1781,1745203219783881240
8060408,3898,3208,1967,1814,1745203219783881240
8061408,3758,3162,2042,1858,1745203219783881240
8062408,3583,3104,2128,1899,1745203219783881240
8063408,3385,3039,2216,1932,1745203219783881240
8064409,3204,2974,2292,1942,1745203219783881240
8065409,3060,2920,2348,1928,1745203219842428049
8066409,2957,2880,2374,1906,1745203219842428049
8067409,2893,2852,2374,1880,1745203219842428049
8068409,2866,2840,2355,1853,1745203219842428049
8069409,2874,2840,2332,1833,1745203219842428049
8070409,2924,2846,2307,1822,1745203219842428049
8071409,3024,2868,2286,1812,1745203219842428049
8072409,3180,2900,2268,1833,1745203219842428049
8073409,3368,2939,2256,1857,1745203219842428049
8074409,3545,2974,2251,1901,1745203219842428049
8075409,3669,2997,2251,1968,1745203219842428049
8076410,3731,3004,2250,2052,1745203219842428049
8077410,3714,2994,2242,2160,1745203219842428049
8078410,3619,2974,2230,2256,1745203219842428049
8079410,3470,2940,2218,2328,1745203219842428049
8080410,3276,2904,2213,2372,1745203219842428049
8081410,3055,2858,2230,2386,1745203219842428049
8082410,2820,2804,2264,2375,1745203219842428049
8083410,2600,2744,2298,2329,1745203219842428049
8084410,2420,2682,2330,2263,1745203219842428049
8085410,2283,2628,2355,2208,1745203219842428049
8086410,2202,2590,2373,2157,1745203219842428049
8087411,2174,2571,2384,2117,1745203219842428049
8088411,2200,2573,2382,2076,1745203219842428049
8089411,2272,2600,2368,2033,1745203219842428049
8090411,2389,2649,2338,1985,1745203219842428049
8091411,2549,2730,2288,1930,1745203219842428049
8092411,2765,2829,2222,1872,1745203219842428049
8093411,3025,2938,2158,1820,1745203219842428049
8094411,3288,3043,2121,1786,1745203219842428049
8095411,3510,3133,2103,1760,1745203219842428049
8096411,3667,3197,2094,1737,1745203219842428049
8097411,3756,3233,2092,1709,1745203219842428049
8098411,3764,3243,2083,1680,1745203219842428049
8099411,3696,3232,2072,1661,1745203219842428049
8100412,3583,3203,2057,1661,1745203219842428049
8101412,3429,3157,2051,1673,1745203219842428049
8102412,3244,3107,2058,1691,1745203219842428049
8103412,3049,3057,2065,1709,1745203219842428049
8104412,2864,3009,2072,1696,1745203219842428049
8105412,2719,2971,2070,1669,1745203219842428049
8106412,2616,2941,2057,1657,1745203219842428049
8107412,2560,2917,2035,1658,1745203219842428049
8108412,2550,2891,2004,1668,1745203219842428049
8109412,2559,2864,1969,1685,1745203219842428049
8110412,2589,2838,1937,1706,1745203219842428049
8111413,2662,2819,1907,1722,1745203219842428049
8112413,2777,2806,1878,1733,1745203219842428049
8113413,2905,2799,1849,1756,1745203219842428049
8114413,3010,2782,1830,1792,1745203219842428049
8115413,3060,2740,1829,1868,1745203219842428049
8116413,3029,2641,1853,1965,1745203219842428049
8117413,2918,2518,1890,2042,1745203219842428049
8118413,2736,2368,1937,2099,1745203219842428049
8119413,2513,2228,1984,2155,1745203219842428049
8120413,2268,2083,2018,2204,1745203219842428049
8121413,1997,1929,2054,2226,1745203219842428049
8122413,1707,1778,2081,2235,1745203219842428049
8123413,1409,1648,2078,2244,1745203219902558854
8124414,1113,1546,2052,2280,1745203219902558854
8125414,877,1475,2019,2332,1745203219902558854
8126414,696,1410,1986,2385,1745203219902558854
8127414,554,1356,1953,2433,1745203219902558854
8128414,453,1318,1941,2475,1745203219902558854
8129414,364,1294,1956,2523,1745203219902558854
8130414,294,1286,1987,2563,1745203219902558854
8131414,240,1297,2024,2590,1745203219902558854
8132414,218,1322,2053,2584,1745203219902558854
8133414,260,1355,2077,2559,1745203219902558854
8134414,336,1382,2096,2516,1745203219902558854
8135414,398,1402,2112,2467,1745203219902558854
8136415,416,1409,2128,2418,1745203219902558854
8137415,366,1393,2140,2377,1745203219902558854
8138415,276,1354,2141,2347,1745203219902558854
8139415,213,1290,2137,2327,1745203219902558854
8140415,171,1210,2130,2321,1745203219902558854
8141415,140,1120,2123,2323,1745203219902558854
8142415,116,1025,2108,2334,1745203219902558854
8143415,97,934,2090,2344,1745203219902558854
8144415,82,856,2070,2341,1745203219902558854
8145415,71,796,2058,2329,1745203219902558854
8146415,62,750,2053,2298,1745203219902558854
8147416,53,717,2054,2253,1745203219902558854
8148416,50,696,2061,2214,1745203219902558854
8149416,42,684,2070,2210,1745203219902558854
8150416,41,689,2077,2227,1745203219902558854
8151416,38,714,2074,2233,1745203219902558854
8152416,36,764,2053,2228,1745203219902558854
8153416,34,824,2017,2220,1745203219902558854
8154416,36,881,1984,2212,1745203219902558854
8155416,98,923,1958,2214,1745203219902558854
8156416,197,952,1949,2217,1745203219902558854
8157416,283,946,1961,2233,1745203219902558854
8158416,321,918,1992,2254,1745203219902558854
8159416,296,866,2027,2282,1745203219902558854
8160417,227,796,2067,2315,1745203219902558854
8161417,172,713,2101,2352,1745203219902558854
8162417,133,626,2130,2386,1745203219902558854
8163417,105,545,2148,2419,1745203219902558854
8164417,84,478,2157,2448,1745203219902558854
8165417,69,413,2155,2461,1745203219902558854
8166417,58,364,2141,2460,1745203219902558854
8167417,49,336,2122,2445,1745203219902558854
8168417,43,328,2100,2420,1745203219902558854
8169417,40,335,2082,2389,1745203219902558854
8170417,36,362,2057,2341,1745203219902558854
8171417,46,414,2020,2273,1745203219902558854
8172418,168,494,1977,2194,1745203219902558854
8173418,395,584,1935,2121,1745203219902558854
8174418,654,682,1905,2062,1745203219902558854
8175418,913,755,1893,2025,1745203219902558854
8176418,1126,800,1907,2009,1745203219902558854
8177418,1273,824,1932,2006,1745203219902558854
8178418,1345,835,1962,2025,1745203219902558854
8179418,1341,833,1994,2048,1745203219902558854
8180418,1270,813,2021,2080,1745203219902558854
8181418,1139,776,2049,2116,1745203219961246703
8182418,956,725,2070,2156,1745203219961246703
8183418,748,673,2089,2196,1745203219961246703
8184419,572,627,2100,2221,1745203219961246703
8185419,450,585,2105,2236,1745203219961246703
8186419,350,550,2097,2237,1745203219961246703
8187419,275,534,2079,2226,1745203219961246703
8188419,237,536,2056,2204,1745203219961246703
8189419,254,552,2029,2173,1745203219961246703
8190419,336,588,2004,2138,1745203219961246703
8191419,495,658,1976,2098,1745203219961246703
8192419,720,753,1947,2059,1745203219961246703
8193419,1000,865,1920,2019,1745203219961246703
8194419,1281,972,1902,1994,1745203219961246703
8195419,1526,1074,1892,1981,1745203219961246703
8196420,1700,1192,1896,1981,1745203219961246703
8197420,1809,1331,1908,1986,1745203219961246703
8198420,1834,1460,1933,1994,1745203219961246703
8199420,1776,1547,1957,2003,1745203219961246703
8200420,1648,1604,1988,2013,1745203219961246703
8201420,1473,1618,2018,2026,1745203219961246703
8202420,1245,1597,2048,2018,1745203219961246703
8203420,995,1550,2080,1953,1745203219961246703
8204420,768,1502,2096,1871,1745203219961246703
8205420,596,1453,2105,1796,1745203219961246703
8206420,475,1412,2102,1741,1745203219961246703
8207421,377,1379,2096,1717,1745203219961246703
8208421,333,1354,2087,1738,1745203219961246703
8209421,345,1326,2077,1769,1745203219961246703
8210421,418,1292,2069,1789,1745203219961246703
8211421,557,1249,2057,1751,1745203219961246703
8212421,784,1201,2040,1673,1745203219961246703
8213421,1061,1164,2030,1606,1745203219961246703
8214421,1349,1153,2037,1570,1745203219961246703
8215421,1604,1163,2059,1568,1745203219961246703
8216421,1808,1185,2094,1609,1745203219961246703
8217421,1936,1204,2139,1664,1745203219961246703
8218421,1972,1210,2184,1709,1745203219961246703
8219421,1922,1198,2225,1754,1745203219961246703
8220422,1804,1172,2264,1804,1745203219961246703
8221422,1631,1139,2299,1852,1745203219961246703
8222422,1428,1104,2331,1883,1745203219961246703
8223422,1204,1081,2353,1886,1745203219961246703
8224422,1000,1080,2359,1863,1745203219961246703
8225422,836,1113,2354,1825,1745203219961246703
8226422,732,1179,2339,1796,1745203219961246703
8227422,686,1266,2314,1792,1745203219961246703
8228422,702,1362,2283,1818,1745203219961246703
8229422,779,1459,2252,1858,1745203219961246703
8230422,910,1545,2211,1896,1745203219961246703
8231422,1109,1648,2161,1918,1745203219961246703
8232423,1380,1764,2114,1909,1745203219961246703
8233423,1692,1908,2076,1881,1745203219961246703
8234423,2021,2101,2053,1850,1745203219961246703
8235423,2316,2332,2040,1821,1745203219961246703
8236423,2559,2565,2038,1795,1745203219961246703
8237423,2734,2764,2050,1782,1745203219961246703
8238423,2837,2891,2068,1770,1745203219961246703
8239423,2863,2947,2090,1760,1745203220019285965
8240423,2814,2941,2115,1742,1745203220019285965
8241423,2689,2877,2146,1696,1745203220019285965
8242423,2508,2769,2181,1618,1745203220019285965
8243423,2295,2644,2208,1540,1745203220019285965
8244424,2102,2528,2226,1489,1745203220019285965
8245424,1963,2428,2233,1449,1745203220019285965
8246424,1889,2356,2227,1434,1745203220019285965
8247424,1872,2312,2216,1425,1745203220019285965
8248424,1904,2292,2194,1410,1745203220019285965
8249424,1974,2291,2171,1389,1745203220019285965
8250424,2077,2307,2139,1363,1745203220019285965
8251424,2227,2344,2097,1339,1745203220019285965
8252424,2437,2414,2049,1324,1745203220019285965
8253424,2677,2477,2002,1315,1745203220019285965
8254424,2921,2552,1964,1314,1745203220019285965
8255424,3113,2605,1947,1330,1745203220019285965
8256425,3237,2648,1933,1364,1745203220019285965
8257425,3281,2655,1929,1416,1745203220019285965
8258425,3229,2636,1930,1486,1745203220019285965
8259425,3095,2590,1936,1563,1745203220019285965
8260425,2912,2520,1944,1659,1745203220019285965
8261425,2696,2404,1955,1765,1745203220019285965
8262425,2459,2265,1971,1873,1745203220019285965
8263425,2210,2125,1986,1982,1745203220019285965
8264425,1979,2016,1996,2067,1745203220019285965
8265426,1801,1939,1999,2146,1745203220019285965
8266425,1684,1913,1988,2200,1745203220019285965
8267425,1628,1922,1970,2235,1745203220019285965
8268426,1622,1964,1953,2254,1745203220019285965
8269426,1669,2030,1934,2260,1745203220019285965
8270426,1756,2108,1915,2246,1745203220019285965
8271426,1904,2201,1896,2212,1745203220019285965
8272426,2122,2312,1877,2165,1745203220019285965
8273426,2386,2438,1860,2121,1745203220019285965
8274426,2648,2555,1851,2085,1745203220019285965
8275426,2880,2640,1849,2062,1745203220019285965
8276426,3045,2709,1857,2056,1745203220019285965
8277426,3129,2740,1876,2057,1745203220019285965
8278426,3121,2733,1897,2067,1745203220019285965
8279426,3034,2690,1922,2084,1745203220019285965
8280427,2890,2620,1949,2113,1745203220019285965
8281427,2697,2543,1973,2154,1745203220019285965
8282427,2472,2447,1995,2204,1745203220019285965
8283427,2224,2352,2013,2248,1745203220019285965
8284427,1990,2269,2020,2283,1745203220019285965
8285427,1806,2207,2018,2305,1745203220019285965
8286427,1682,2165,2008,2316,1745203220019285965
8287427,1617,2145,1994,2312,1745203220019285965
8288427,1611,2140,1976,2316,1745203220019285965
8289427,1658,2146,1960,2304,1745203220019285965
8290427,1745,2160,1940,2273,1745203220019285965
8291427,1908,2193,1917,2216,1745203220019285965
8292428,2192,2250,1898,2144,1745203220019285965
8293428,2515,2326,1882,2082,1745203220019285965
8294428,2788,2402,1874,2040,1745203220019285965
8295428,2990,2469,1874,2014,1745203220019285965
8296428,3104,2513,1884,2008,1745203220019285965
8297428,3149,2525,1900,2019,1745203220078584902
8298428,3138,2504,1918,2050,1745203220078584902
8299428,3076,2459,1939,2091,1745203220078584902
8300428,2950,2395,1965,2140,1745203220078584902
8301428,2756,2314,2004,2181,1745203220078584902
8302428,2512,2219,2048,2208,1745203220078584902
8303429,2246,2117,2084,2222,1745203220078584902
8304429,2016,2021,2112,2241,1745203220078584902
8305429,1842,1942,2127,2260,1745203220078584902
8306429,1717,1882,2130,2272,1745203220078584902
8307429,1637,1844,2116,2270,1745203220078584902
8308429,1602,1820,2082,2262,1745203220078584902
8309429,1603,1802,2026,2246,1745203220078584902
8310429,1641,1788,1957,2223,1745203220078584902
8311429,1741,1791,1885,2191,1745203220078584902
8312429,1914,1817,1819,2147,1745203220078584902
8313429,2137,1837,1769,2105,1745203220078584902
8314429,2364,1812,1732,2069,1745203220078584902
8315429,2555,1732,1721,2033,1745203220078584902
8316430,2675,1630,1737,1969,1745203220078584902
8317430,2729,1535,1777,1874,1745203220078584902
8318430,2696,1445,1836,1788,1745203220078584902
8319430,2586,1364,1924,1740,1745203220078584902
8320430,2428,1298,2020,1725,1745203220078584902
8321431,2218,1239,2120,1737,1745203220078584902
8322430,1968,1185,2202,1784,1745203220078584902
8323430,1699,1135,2261,1868,1745203220078584902
8324430,1452,1094,2291,1989,1745203220078584902
8325430,1230,1077,2290,2121,1745203220078584902
8326430,1046,1092,2263,2216,1745203220078584902
8327431,900,1137,2226,2216,1745203220078584902
8328431,797,1196,2187,2147,1745203220078584902
8329431,719,1253,2154,2081,1745203220078584902
8330431,662,1305,2132,2020,1745203220078584902
8331431,641,1343,2114,2020,1745203220078584902
8332431,658,1362,2089,2165,1745203220078584902
8333431,702,1377,2060,2382,1745203220078584902
8334431,739,1385,2029,2559,1745203220078584902
8335431,737,1400,2006,2718,1745203220078584902
8336431,689,1440,1998,2844,1745203220078584902
8337431,604,1486,2004,2918,1745203220078584902
8338431,508,1508,2024,2927,1745203220078584902
8339432,404,1473,2060,2904,1745203220078584902
8340432,324,1371,2092,2892,1745203220078584902
8341432,260,1218,2110,2900,1745203220078584902
8342432,212,1048,2109,2913,1745203220078584902
8343432,173,920,2096,2904,1745203220078584902
8344432,143,851,2077,2844,1745203220078584902
8345432,120,830,2057,2758,1745203220078584902
8346432,99,849,2025,2675,1745203220078584902
8347432,85,903,1976,2609,1745203220078584902
8348432,73,985,1913,2560,1745203220078584902
8349432,64,1081,1853,2544,1745203220078584902
8350432,166,1186,1802,2544,1745203220078584902
8351433,490,1313,1761,2530,1745203220078584902
8352433,980,1469,1726,2482,1745203220078584902
8353433,1580,1643,1702,2407,1745203220078584902
8354433,2182,1843,1698,2316,1745203220078584902
8355433,2651,2060,1716,2216,1745203220134724181
8356433,3026,2275,1757,2122,1745203220134724181
8357433,3314,2473,1806,2050,1745203220134724181
8358433,3529,2632,1852,2003,1745203220134724181
8359433,3677,2765,1886,1976,1745203220134724181
8360433,3792,2867,1908,1968,1745203220134724181
8361433,3876,2939,1918,1975,1745203220134724181
8362433,3933,2985,1913,1992,1745203220134724181
8363434,3977,3003,1900,2010,1745203220134724181
8364434,4007,2998,1884,2028,1745203220134724181
8365434,4029,2968,1869,2042,1745203220134724181
8366434,4044,2916,1856,2055,1745203220134724181
8367434,4054,2867,1834,2061,1745203220134724181
8368434,4038,2842,1803,2062,1745203220134724181
8369434,3987,2865,1768,2061,1745203220134724181
8370434,3934,2925,1733,2053,1745203220134724181
8371434,3925,3010,1705,2030,1745203220134724181
8372434,3974,3097,1694,1999,1745203220134724181
8373434,4014,3178,1716,1966,1745203220134724181
8374434,4040,3250,1771,1941,1745203220134724181
8375435,4053,3299,1836,1926,1745203220134724181
8376435,4064,3325,1890,1922,1745203220134724181
8377435,4073,3333,1915,1931,1745203220134724181
8378437,4044,3318,1913,1960,1745203220134724181
8379435,3907,3266,1889,2010,1745203220134724181
8380435,3671,3177,1844,2065,1745203220134724181
8381435,3386,3069,1784,2112,1745203220134724181
8382435,3054,2969,1718,2138,1745203220134724181
8383435,2735,2830,1672,2155,1745203220134724181
8384435,2460,2735,1643,2157,1745203220134724181
8385435,2255,2651,1644,2133,1745203220134724181
8386435,2146,2609,1683,2100,1745203220134724181
8387435,2127,2596,1744,2037,1745203220134724181
8388436,2180,2607,1809,1964,1745203220134724181
8389436,2284,2636,1868,1899,1745203220134724181
8390436,2426,2690,1916,1833,1745203220134724181
8391436,2628,2766,1952,1758,1745203220134724181
8392436,2907,2869,1979,1694,1745203220134724181
8393436,3234,2993,2002,1657,1745203220134724181
8394436,3491,3121,2036,1645,1745203220134724181
8395436,3665,3246,2081,1660,1745203220134724181
8396436,3794,3356,2117,1683,1745203220134724181
8397436,3882,3441,2146,1686,1745203220134724181
8398436,3945,3510,2163,1667,1745203220134724181
8399436,3989,3569,2166,1642,1745203220134724181
8400437,4019,3611,2166,1628,1745203220134724181
8401437,4040,3652,2162,1629,1745203220134724181
8402437,4053,3685,2158,1620,1745203220134724181
8403437,4062,3713,2147,1587,1745203220134724181
8404437,4070,3752,2123,1540,1745203220134724181
8405437,4074,3814,2088,1493,1745203220134724181
8406437,4077,3890,2053,1430,1745203220134724181
8407437,4080,3945,2030,1361,1745203220134724181
8408437,4081,3986,2024,1300,1745203220134724181
8409437,4082,4014,2034,1266,1745203220134724181
8410437,4084,4034,2057,1250,1745203220134724181
8411437,4083,4048,2068,1242,1745203220134724181
8412438,4085,4058,2054,1235,1745203220134724181
8413438,4085,4066,2018,1228,1745203220193145002
8414438,4085,4070,1977,1228,1745203220193145002
8415438,4085,4075,1928,1231,1745203220193145002
8416438,4085,4077,1875,1241,1745203220193145002
8417438,4086,4078,1842,1258,1745203220193145002
8418438,4086,4081,1832,1283,1745203220193145002
8419438,4085,4082,1846,1314,1745203220193145002
8420438,4086,4082,1889,1345,1745203220193145002
8421438,4085,4082,1952,1373,1745203220193145002
8422438,4085,4082,2017,1403,1745203220193145002
8423439,4086,4084,2088,1440,1745203220193145002
8424439,4085,4083,2153,1487,1745203220193145002
8425439,4085,4083,2212,1535,1745203220193145002
8426439,4085,4084,2260,1573,1745203220193145002
8427439,4085,4084,2301,1613,1745203220193145002
8428439,4086,4083,2332,1650,1745203220193145002
8429439,4086,4084,2351,1683,1745203220193145002
8430439,4086,4083,2360,1712,1745203220193145002
8431439,4085,4084,2357,1738,1745203220193145002
8432439,4085,4084,2348,1759,1745203220193145002
8433439,4086,4084,2338,1784,1745203220193145002
8434439,4085,4082,2331,1816,1745203220193145002
8435439,4085,4045,2332,1856,1745203220193145002
8436440,4084,3944,2340,1898,1745203220193145002
8437440,3980,3803,2354,1939,1745203220193145002
8438441,3741,3649,2370,1971,1745203220193145002
8439441,3460,3512,2387,1998,1745203220193145002
8440441,3171,3377,2404,2028,1745203220193145002
8441440,2892,3262,2419,2067,1745203220193145002
8442440,2628,3149,2432,2101,1745203220193145002
8443440,2386,3044,2441,2126,1745203220193145002
8444440,2162,2953,2444,2144,1745203220193145002
8445440,1982,2864,2441,2147,1745203220193145002
8446440,1852,2797,2432,2139,1745203220193145002
8447440,1769,2739,2416,2126,1745203220193145002
8448441,1728,2692,2396,2109,1745203220193145002
8449441,1723,2658,2374,2090,1745203220193145002
8450441,1758,2635,2350,2068,1745203220193145002
8451441,1852,2629,2321,2038,1745203220193145002
8452441,2016,2643,2292,2008,1745203220193145002
8453441,2234,2671,2261,1982,1745203220193145002
8454441,2464,2699,2233,1964,1745203220193145002
8455441,2666,2694,2211,1947,1745203220193145002
8456441,2827,2627,2189,1940,1745203220193145002
8457441,2929,2512,2173,1933,1745203220193145002
8458441,2973,2385,2163,1939,1745203220193145002
8459441,2958,2270,2148,1954,1745203220193145002
8460442,2890,2157,2147,1966,1745203220193145002
8461442,2755,2040,2148,1980,1745203220193145002
8462442,2557,1915,2155,1990,1745203220193145002
8463442,2302,1785,2165,2008,1745203220193145002
8464442,2027,1655,2176,2035,1745203220193145002
8465442,1770,1536,2177,2075,1745203220193145002
8466442,1550,1436,2173,2114,1745203220193145002
8467442,1379,1344,2163,2153,1745203220193145002
8468442,1234,1265,2149,2189,1745203220193145002
8469442,1122,1203,2136,2214,1745203220193145002
8470442,1041,1155,2126,2227,1745203220193145002
8471443,1006,1129,2115,2225,1745203220254648294
8472443,1032,1123,2104,2211,1745203220254648294
8473443,1106,1128,2096,2198,1745203220254648294
8474443,1194,1134,2091,2201,1745203220254648294
8475443,1260,1138,2097,2226,1745203220254648294
8476443,1279,1129,2107,2268,1745203220254648294
8477443,1237,1108,2124,2327,1745203220254648294
8478443,1132,1073,2147,2406,1745203220254648294
8479443,973,1027,2174,2496,1745203220254648294
8480443,802,972,2200,2577,1745203220254648294
8481443,637,906,2222,2670,1745203220254648294
8482443,511,834,2240,2766,1745203220254648294
8483444,415,766,2248,2845,1745203220254648294
8484444,334,708,2248,2899,1745203220254648294
8485444,269,658,2244,2917,1745203220254648294
8486444,220,616,2234,2912,1745203220254648294
8487444,178,584,2216,2890,1745203220254648294
8488444,149,569,2190,2860,1745203220254648294
8489444,124,570,2163,2812,1745203220254648294
8490444,104,592,2133,2736,1745203220254648294
8491444,88,634,2097,2636,1745203220254648294
8492444,75,691,2048,2542,1745203220254648294
8493444,65,750,1996,2452,1745203220254648294
8494444,58,798,1950,2395,1745203220254648294
8495444,52,836,1918,2371,1745203220254648294
8496447,52,854,1904,2379,1745203220254648294
8497445,42,848,1902,2404,1745203220254648294
8498445,38,812,1917,2424,1745203220254648294
8499446,37,750,1936,2437,1745203220254648294
8500445,34,670,1952,2468,1745203220254648294
8501445,34,578,1962,2520,1745203220254648294
8502445,33,501,1967,2562,1745203220254648294
8503445,32,421,1961,2590,1745203220254648294
8504445,30,349,1953,2604,1745203220254648294
8505445,29,288,1942,2587,1745203220254648294
8506445,29,235,1940,2542,1745203220254648294
8507445,29,196,1940,2465,1745203220254648294
8508446,28,172,1942,2378,1745203220254648294
8509446,28,156,1947,2301,1745203220254648294
8510446,28,150,1950,2229,1745203220254648294
8511446,27,161,1945,2166,1745203220254648294
8512446,28,194,1924,2108,1745203220254648294
8513446,27,240,1900,2061,1745203220254648294
8514446,27,291,1880,2027,1745203220254648294
8515446,27,339,1870,2016,1745203220254648294
8516446,26,377,1873,2021,1745203220254648294
8517446,26,396,1892,2050,1745203220254648294
8518446,26,401,1924,2085,1745203220254648294
8519446,27,389,1966,2115,1745203220254648294
8520447,26,368,2016,2138,1745203220254648294
8521447,26,334,2066,2164,1745203220254648294
8522447,26,286,2114,2195,1745203220254648294
8523447,25,227,2152,2232,1745203220254648294
8524447,25,174,2174,2268,1745203220254648294
8525447,26,138,2185,2292,1745203220254648294
8526447,26,112,2174,2304,1745203220254648294
8527447,26,97,2168,2300,1745203220254648294
8528447,26,93,2152,2293,1745203220254648294
8529447,25,123,2133,2274,1745203220312612660
8530447,25,174,2121,2245,1745203220312612660
8531447,25,257,2102,2201,1745203220312612660
8532448,26,368,2081,2147,1745203220312612660
8533448,25,494,2062,2096,1745203220312612660
8534448,35,603,2049,2057,1745203220312612660
8535448,111,698,2040,2030,1745203220312612660
8536448,219,768,2037,2026,1745203220312612660
8537448,317,814,2037,2038,1745203220312612660
8538448,378,841,2034,2064,1745203220312612660
8539448,385,845,2030,2099,1745203220312612660
8540448,340,828,2029,2139,1745203220312612660
8541448,260,790,2034,2182,1745203220312612660
8542448,198,738,2052,2226,1745203220312612660
8543449,153,678,2074,2261,1745203220312612660
8544449,120,625,2089,2290,1745203220312612660
8545449,96,582,2102,2304,1745203220312612660
8546449,77,558,2105,2315,1745203220312612660
8547449,64,554,2098,2333,1745203220312612660
8548449,54,568,2093,2349,1745203220312612660
8549449,48,600,2095,2348,1745203220312612660
8550449,42,645,2093,2320,1745203220312612660
8551449,64,710,2078,2277,1745203220312612660
8552449,205,795,2064,2213,1745203220312612660
8553449,449,894,2050,2139,1745203220312612660
8554449,720,992,2033,2069,1745203220312612660
8555449,991,1081,2021,2008,1745203220312612660
8556450,1217,1154,2017,1985,1745203220312612660
8557450,1374,1212,2025,1980,1745203220312612660
8558451,1450,1248,2035,1996,1745203220312612660
8559450,1454,1261,2044,2027,1745203220312612660
8560450,1390,1259,2060,2070,1745203220312612660
8561450,1269,1243,2078,2120,1745203220312612660
8562450,1100,1213,2110,2181,1745203220312612660
8563450,908,1174,2145,2239,1745203220312612660
8564450,726,1137,2182,2276,1745203220312612660
8565450,579,1115,2209,2299,1745203220312612660
8566450,501,1114,2225,2313,1745203220312612660
8567451,475,1131,2232,2313,1745203220312612660
8568451,511,1163,2225,2293,1745203220312612660
8569451,602,1209,2201,2262,1745203220312612660
8570451,741,1268,2164,2213,1745203220312612660
8571451,932,1339,2113,2140,1745203220312612660
8572451,1187,1439,2049,2056,1745203220312612660
8573451,1488,1535,1978,1968,1745203220312612660
8574451,1784,1640,1917,1893,1745203220312612660
8575451,2064,1737,1872,1828,1745203220312612660
8576451,2287,1808,1848,1778,1745203220312612660
8577451,2435,1850,1843,1745,1745203220312612660
8578451,2496,1854,1861,1731,1745203220312612660
8579451,2470,1826,1895,1741,1745203220312612660
8580452,2373,1779,1935,1771,1745203220312612660
8581452,2222,1724,1976,1814,1745203220312612660
8582452,2026,1673,2012,1865,1745203220312612660
8583452,1811,1631,2043,1912,1745203220312612660
8584452,1616,1593,2062,1950,1745203220312612660
8585452,1468,1561,2072,1971,1745203220312612660
8586452,1368,1542,2082,1982,1745203220312612660
8587452,1331,1544,2092,1986,1745203220367993092
8588452,1352,1569,2108,1984,1745203220367993092
8589452,1428,1611,2119,1978,1745203220367993092
8590452,1542,1668,2116,1964,1745203220367993092
8591452,1723,1748,2094,1933,1745203220367993092
8592453,1974,1849,2054,1889,1745203220367993092
8593453,2285,1962,2010,1849,1745203220367993092
8594453,2600,2071,1965,1816,1745203220367993092
8595453,2890,2165,1937,1804,1745203220367993092
8596453,3131,2246,1925,1810,1745203220367993092
8597453,3300,2304,1930,1838,1745203220367993092
8598453,3379,2338,1951,1879,1745203220367993092
8599453,3380,2349,1979,1928,1745203220367993092
8600453,3312,2341,2019,1976,1745203220367993092
8601453,3182,2314,2064,2020,1745203220367993092
8602453,3006,2270,2108,2065,1745203220367993092
8603455,2807,2216,2148,2109,1745203220367993092
8604454,2618,2163,2184,2131,1745203220367993092
8605454,2477,2125,2208,2098,1745203220367993092
8606454,2384,2101,2224,1989,1745203220367993092
8607454,2352,2097,2232,1840,1745203220367993092
8608454,2377,2110,2230,1696,1745203220367993092
8609454,2446,2135,2227,1578,1745203220367993092
8610454,2553,2174,2218,1486,1745203220367993092
8611454,2702,2237,2204,1416,1745203220367993092
8612454,2925,2323,2189,1371,1745203220367993092
8613454,3198,2425,2177,1347,1745203220367993092
8614454,3460,2531,2165,1337,1745203220367993092
8615455,3629,2624,2158,1340,1745203220367993092
8616455,3757,2702,2158,1365,1745203220367993092
8617455,3850,2740,2163,1397,1745203220367993092
8618455,3894,2736,2167,1440,1745203220367993092
8619455,3846,2678,2170,1492,1745203220367993092
8620455,3718,2588,2162,1540,1745203220367993092
8621455,3534,2512,2161,1605,1745203220367993092
8622455,3288,2427,2161,1673,1745203220367993092
8623455,3019,2343,2167,1737,1745203220367993092
8624455,2764,2272,2174,1797,1745203220367993092
8625455,2559,2214,2170,1860,1745203220367993092
8626455,2412,2188,2164,1911,1745203220367993092
8627455,2326,2194,2155,1956,1745203220367993092
8628456,2299,2227,2140,1988,1745203220367993092
8629456,2323,2270,2128,2010,1745203220367993092
8630456,2395,2313,2114,2012,1745203220367993092
8631456,2521,2356,2105,2000,1745203220367993092
8632456,2707,2416,2093,1992,1745203220367993092
8633456,2953,2499,2084,1995,1745203220367993092
8634456,3215,2583,2073,1998,1745203220367993092
8635456,3446,2669,2067,2000,1745203220367993092
8636456,3613,2731,2067,2000,1745203220367993092
8637456,3713,2764,2067,1988,1745203220367993092
8638456,3725,2766,2075,1988,1745203220367993092
8639456,3656,2753,2066,1972,1745203220367993092
8640457,3534,2728,2054,1962,1745203220367993092
8641457,3356,2679,2036,1953,1745203220367993092
8642457,3135,2608,2018,1947,1745203220367993092
8643457,2893,2534,2008,1947,1745203220367993092
8644457,2658,2452,2003,1948,1745203220367993092
8645457,2464,2382,2010,1944,1745203220428324103
8646457,2313,2317,2012,1942,1745203220428324103
8647457,2217,2265,2006,1941,1745203220428324103
8648457,2173,2224,1989,1942,1745203220428324103
8649457,2177,2196,1964,1944,1745203220428324103
8650457,2225,2192,1934,1940,1745203220428324103
8651457,2331,2214,1906,1926,1745203220428324103
8652458,2505,2261,1880,1906,1745203220428324103
8653458,2717,2328,1860,1892,1745203220428324103
8654458,2949,2393,1852,1885,1745203220428324103
8655458,3151,2451,1858,1893,1745203220428324103
8656458,3296,2490,1877,1909,1745203220428324103
8657458,3366,2513,1906,1941,1745203220428324103
8658458,3355,2516,1945,1980,1745203220428324103
8659458,3272,2504,1987,2029,1745203220428324103
8660458,3136,2480,2031,2082,1745203220428324103
8661458,2958,2444,2070,2139,1745203220428324103
8662458,2748,2396,2105,2203,1745203220428324103
8663458,2533,2342,2131,2272,1745203220428324103
8664459,2322,2297,2147,2342,1745203220428324103
8665459,2150,2264,2155,2408,1745203220428324103
8666459,2029,2240,2155,2464,1745203220428324103
8667459,1961,2228,2149,2510,1745203220428324103
8668459,1942,2227,2139,2543,1745203220428324103
8669459,1965,2236,2124,2559,1745203220428324103
8670459,2029,2256,2097,2569,1745203220428324103
8671459,2143,2289,2052,2570,1745203220428324103
8672460,2312,2339,1995,2561,1745203220428324103
8673459,2524,2400,1937,2551,1745203220428324103
8674460,2737,2462,1878,2523,1745203220428324103
8675459,2928,2513,1832,2488,1745203220428324103
8676460,3068,2544,1798,2452,1745203220428324103
8677460,3144,2558,1786,2420,1745203220428324103
8678460,3145,2547,1794,2401,1745203220428324103
8679460,3075,2517,1821,2393,1745203220428324103
8680460,2949,2475,1862,2395,1745203220428324103
8681460,2784,2419,1916,2404,1745203220428324103
8682460,2580,2350,1979,2418,1745203220428324103
8683461,2364,2275,2052,2427,1745203220428324103
8684460,2146,2204,2122,2436,1745203220428324103
8685460,1958,2141,2178,2436,1745203220428324103
8686460,1819,2094,2205,2421,1745203220428324103
8687460,1725,2065,2208,2392,1745203220428324103
8688461,1671,2049,2192,2342,1745203220428324103
8689461,1649,2040,2163,2285,1745203220428324103
8690461,1659,2041,2129,2234,1745203220428324103
8691461,1710,2061,2093,2188,1745203220428324103
8692461,1813,2094,2060,2144,1745203220428324103
8693461,1953,2138,2034,2105,1745203220428324103
8694461,2102,2180,2022,2080,1745203220428324103
8695461,2224,2212,2020,2057,1745203220428324103
8696461,2298,2228,2032,2041,1745203220428324103
8697461,2313,2226,2057,2032,1745203220428324103
8698461,2266,2203,2089,2022,1745203220428324103
8699462,2165,2162,2125,2005,1745203220428324103
8700462,2016,2108,2162,1992,1745203220428324103
8701462,1836,2040,2197,1987,1745203220428324103
8702462,1628,1971,2228,1997,1745203220428324103
8703462,1427,1894,2246,2016,1745203220484838847
8704462,1217,1824,2254,2038,1745203220484838847
8705462,1019,1750,2258,2069,1745203220484838847
8706462,847,1704,2257,2100,1745203220484838847
8707462,706,1656,2252,2135,1745203220484838847
8708462,592,1618,2248,2168,1745203220484838847
8709462,509,1580,2236,2204,1745203220484838847
8710462,431,1546,2210,2239,1745203220484838847
8711463,374,1522,2170,2270,1745203220484838847
8712463,341,1493,2124,2304,1745203220484838847
8713463,317,1463,2078,2349,1745203220484838847
8714463,286,1418,2032,2412,1745203220484838847
8715463,232,1341,1997,2498,1745203220484838847
8716463,189,1231,1974,2576,1745203220484838847
8717463,155,1089,1965,2656,1745203220484838847
8718463,129,930,1962,2720,1745203220484838847
8719463,106,773,1962,2762,1745203220484838847
8720463,90,628,1961,2781,1745203220484838847
8721463,77,507,1956,2792,1745203220484838847
8722463,66,402,1950,2805,1745203220484838847
8723463,61,321,1940,2819,1745203220484838847
8724464,54,256,1922,2819,1745203220484838847
8725464,47,206,1892,2798,1745203220484838847
8726464,43,166,1853,2752,1745203220484838847
8727465,43,137,1811,2681,1745203220484838847
8728464,38,124,1768,2592,1745203220484838847
8729464,36,176,1723,2504,1745203220484838847
8730465,34,293,1684,2403,1745203220484838847
8731464,33,461,1648,2300,1745203220484838847
8732464,85,662,1626,2201,1745203220484838847
8733465,366,894,1607,2107,1745203220484838847
8734464,811,1138,1592,2009,1745203220484838847
8735464,1350,1382,1579,1928,1745203220484838847
8736465,1915,1614,1575,1859,1745203220484838847
8737465,2448,1844,1574,1798,1745203220484838847
8738465,2858,2062,1582,1750,1745203220484838847
8739465,3185,2259,1600,1715,1745203220484838847
8740465,3432,2430,1626,1693,1745203220484838847
8741465,3606,2564,1657,1688,1745203220484838847
8742465,3743,2678,1692,1696,1745203220484838847
8743467,3838,2762,1721,1713,1745203220484838847
8744465,3907,2819,1743,1736,1745203220484838847
8745465,3958,2860,1761,1754,1745203220484838847
8746465,3994,2889,1778,1771,1745203220484838847
8747465,4018,2911,1801,1785,1745203220484838847
8748466,4036,2929,1826,1795,1745203220484838847
8749466,4049,2939,1854,1804,1745203220484838847
8750466,4058,2944,1881,1814,1745203220484838847
8751466,4062,2942,1908,1819,1745203220484838847
8752466,4069,2937,1938,1823,1745203220484838847
8753466,4073,2916,1976,1840,1745203220484838847
8754466,4016,2856,2023,1875,1745203220484838847
8755466,3844,2768,2075,1920,1745203220484838847
8756466,3609,2668,2123,1963,1745203220484838847
8757466,3362,2565,2167,2004,1745203220484838847
8758466,3107,2474,2208,2036,1745203220484838847
8759466,2875,2388,2244,2058,1745203220484838847
8760467,2704,2333,2266,2057,1745203220484838847
8761467,2596,2305,2274,2040,1745203220564188123
8762467,2556,2306,2270,2017,1745203220564188123
8763467,2547,2326,2259,1988,1745203220564188123
8764467,2564,2360,2246,1956,1745203220564188123
8765467,2625,2408,2232,1923,1745203220564188123
8766467,2728,2469,2217,1883,1745203220564188123
8767467,2867,2544,2206,1841,1745203220564188123
8768467,3046,2624,2193,1798,1745203220564188123
8769467,3258,2722,2177,1756,1745203220564188123
8770467,3493,2831,2152,1715,1745203220564188123
8771467,3672,2954,2120,1662,1745203220564188123
8772468,3801,3080,2080,1613,1745203220564188123
8773468,3890,3213,2035,1561,1745203220564188123
8774468,3949,3360,1995,1516,1745203220564188123
8775468,3992,3514,1957,1464,1745203220564188123
8776469,4020,3660,1924,1411,1745203220564188123
8777468,4036,3777,1896,1361,1745203220564188123
8778468,4052,3864,1874,1316,1745203220564188123
8779468,4062,3923,1858,1274,1745203220564188123
8780468,4067,3968,1844,1235,1745203220564188123
8781468,4072,4001,1835,1197,1745203220564188123
8782468,4076,4024,1829,1163,1745203220564188123
8783468,4077,4038,1825,1130,1745203220564188123
8784469,4080,4052,1817,1100,1745203220564188123
8785469,4082,4061,1806,1067,1745203220564188123
8786469,4082,4066,1792,1031,1745203220564188123
8787469,4083,4072,1776,993,1745203220564188123
8788469,4083,4076,1758,958,1745203220564188123
8789469,4084,4075,1744,935,1745203220564188123
8790469,4085,4078,1736,922,1745203220564188123
8791469,4085,4080,1739,915,1745203220564188123
8792469,4085,4081,1746,921,1745203220564188123
8793469,4085,4082,1762,938,1745203220564188123
8794469,4085,4083,1789,970,1745203220564188123
8795470,4085,4084,1826,1012,1745203220564188123
8796470,4086,4081,1868,1064,1745203220564188123
8797470,4088,4085,1920,1124,1745203220564188123
8798470,4085,4085,1965,1196,1745203220564188123
8799470,4085,4085,2008,1275,1745203220564188123
8800470,4085,4084,2049,1357,1745203220564188123
8801470,4086,4084,2091,1444,1745203220564188123
8802470,4086,4085,2131,1532,1745203220564188123
8803470,4086,4085,2164,1610,1745203220564188123
8804470,4086,4086,2190,1693,1745203220564188123
8805470,4088,4085,2210,1775,1745203220564188123
8806470,4086,4084,2224,1839,1745203220564188123
8807470,4086,4085,2236,1898,1745203220564188123
8808471,4086,4084,2248,1945,1745203220564188123
8809471,4085,4046,2260,1978,1745203220564188123
8810471,4085,3974,2274,2006,1745203220564188123
8811471,4085,3892,2284,2030,1745203220564188123
8812471,4086,3809,2284,2053,1745203220564188123
8813471,4086,3728,2279,2070,1745203220564188123
8814471,4085,3644,2275,2088,1745203220564188123
8815471,4063,3560,2278,2116,1745203220564188123
8816471,3930,3448,2289,2162,1745203220564188123
8817471,3697,3315,2306,2220,1745203220564188123
8818471,3409,3170,2326,2283,1745203220564188123
8819471,3091,3022,2347,2344,1745203220601769706
8820472,2758,2876,2363,2395,1745203220601769706
8821472,2452,2738,2371,2435,1745203220601769706
8822472,2160,2610,2370,2462,1745203220601769706
8823472,1891,2504,2362,2481,1745203220601769706
8824472,1651,2398,2349,2486,1745203220601769706
8825472,1454,2306,2333,2485,1745203220601769706
8826472,1287,2226,2308,2477,1745203220601769706
8827472,1153,2153,2280,2467,1745203220601769706
8828472,1038,2080,2249,2458,1745203220601769706
8829472,934,2010,2222,2450,1745203220601769706
8830472,846,1945,2196,2438,1745203220601769706
8831472,795,1894,2165,2417,1745203220601769706
8832473,806,1869,2124,2384,1745203220601769706
8833473,906,1874,2078,2340,1745203220601769706
8834473,1082,1908,2032,2289,1745203220601769706
8835473,1293,1957,1993,2243,1745203220601769706
8836473,1514,2016,1964,2200,1745203220601769706
8837473,1722,2080,1941,2157,1745203220601769706
8838473,1934,2151,1918,2117,1745203220601769706
8839473,2152,2236,1896,2075,1745203220601769706
8840473,2378,2332,1881,2031,1745203220601769706
8841473,2595,2435,1888,1990,1745203220601769706
8842473,2798,2530,1914,1960,1745203220601769706
8843474,2960,2600,1956,1938,1745203220601769706
8844474,3077,2660,2004,1922,1745203220601769706
8845474,3168,2704,2065,1908,1745203220601769706
8846474,3245,2739,2125,1892,1745203220601769706
8847474,3320,2771,2178,1880,1745203220601769706
8848475,3388,2801,2206,1868,1745203220601769706
8849474,3460,2841,2242,1854,1745203220601769706
8850474,3525,2874,2256,1841,1745203220601769706
8851474,3578,2913,2254,1826,1745203220601769706
8852474,3632,2948,2244,1813,1745203220601769706
8853474,3690,2972,2232,1804,1745203220601769706
8854474,3710,2969,2224,1812,1745203220601769706
8855475,3661,2934,2225,1844,1745203220601769706
8856475,3530,2867,2234,1897,1745203220601769706
8857475,3320,2774,2249,1963,1745203220601769706
8858475,3051,2659,2265,2044,1745203220601769706
8859475,2748,2542,2281,2133,1745203220601769706
8860475,2434,2414,2296,2218,1745203220601769706
8861475,2102,2281,2309,2296,1745203220601769706
8862475,1762,2141,2318,2364,1745203220601769706
8863475,1427,1996,2317,2418,1745203220601769706
8864475,1113,1854,2288,2456,1745203220601769706
8865475,874,1724,2233,2476,1745203220601769706
8866475,693,1602,2164,2483,1745203220601769706
8867475,554,1498,2107,2480,1745203220601769706
8868476,452,1393,2072,2472,1745203220601769706
8869476,364,1296,2058,2464,1745203220601769706
8870476,294,1212,2062,2461,1745203220601769706
8871476,238,1134,2075,2448,1745203220601769706
8872476,196,1077,2091,2432,1745203220601769706
8873476,161,1035,2104,2417,1745203220601769706
8874476,133,998,2123,2406,1745203220601769706
8875476,111,961,2152,2402,1745203220601769706
8876476,94,914,2179,2410,1745203220601769706
8877476,81,859,2201,2422,1745203220662367590
8878476,70,793,2205,2445,1745203220662367590
8879476,60,720,2186,2476,1745203220662367590
8880477,54,640,2146,2513,1745203220662367590
8881477,48,555,2098,2551,1745203220662367590
8882477,44,474,2042,2580,1745203220662367590
8883477,41,381,1992,2618,1745203220662367590
8884477,38,306,1945,2649,1745203220662367590
8885477,36,246,1907,2676,1745203220662367590
8886477,34,200,1883,2696,1745203220662367590
8887477,33,163,1873,2704,1745203220662367590
8888477,31,134,1874,2701,1745203220662367590
8889477,30,110,1892,2689,1745203220662367590
8890477,30,93,1916,2659,1745203220662367590
8891477,28,80,1931,2618,1745203220662367590
8892478,28,85,1924,2566,1745203220662367590
8893478,28,113,1903,2526,1745203220662367590
8894478,28,154,1874,2476,1745203220662367590
8895478,28,194,1845,2438,1745203220662367590
8896478,27,227,1824,2414,1745203220662367590
8897478,28,246,1804,2405,1745203220662367590
8898478,29,250,1791,2409,1745203220662367590
8899478,26,241,1793,2422,1745203220662367590
8900478,26,222,1813,2441,1745203220662367590
8901478,26,195,1858,2461,1745203220662367590
8902478,26,162,1926,2481,1745203220662367590
8903478,27,128,2006,2500,1745203220662367590
8904479,26,99,2080,2513,1745203220662367590
8905479,25,84,2124,2513,1745203220662367590
8906479,25,72,2145,2507,1745203220662367590
8907480,26,61,2154,2486,1745203220662367590
8908480,25,60,2163,2460,1745203220662367590
8909479,25,74,2181,2432,1745203220662367590
8910479,26,99,2198,2399,1745203220662367590
8911479,27,139,2220,2358,1745203220662367590
8912479,28,196,2232,2312,1745203220662367590
8913479,25,264,2234,2262,1745203220662367590
8914479,25,340,2222,2218,1745203220662367590
8915479,26,409,2208,2185,1745203220662367590
8916480,24,465,2205,2168,1745203220662367590
8917480,25,505,2218,2163,1745203220662367590
8918480,25,519,2240,2166,1745203220662367590
8919480,25,524,2257,2178,1745203220662367590
8920480,25,517,2263,2185,1745203220662367590
8921480,25,510,2254,2198,1745203220662367590
8922480,25,484,2234,2209,1745203220662367590
8923480,25,453,2202,2219,1745203220662367590
8924480,25,428,2157,2225,1745203220662367590
8925480,25,410,2108,2222,1745203220662367590
8926480,25,408,2064,2205,1745203220662367590
8927480,25,421,2032,2186,1745203220662367590
8928481,25,449,2022,2163,1745203220662367590
8929481,25,484,2027,2136,1745203220662367590
8930481,26,516,2043,2114,1745203220662367590
8931481,25,570,2070,2082,1745203220662367590
8932481,25,640,2097,2052,1745203220662367590
8933481,25,723,2124,2019,1745203220662367590
8934481,25,805,2141,1989,1745203220662367590
8935481,25,881,2156,1965,1745203220718892543
8936481,38,942,2161,1954,1745203220718892543
8937481,83,984,2164,1955,1745203220718892543
8938481,129,1005,2162,1974,1745203220718892543
8939481,155,1004,2162,2018,1745203220718892543
8940482,155,987,2163,2065,1745203220718892543
8941482,128,956,2160,2099,1745203220718892543
8942482,99,920,2153,2124,1745203220718892543
8943482,79,880,2142,2136,1745203220718892543
8944482,65,844,2124,2142,1745203220718892543
8945482,53,818,2101,2137,1745203220718892543
8946482,46,803,2074,2102,1745203220718892543
8947482,41,802,2044,2067,1745203220718892543
8948482,38,814,2018,2036,1745203220718892543
8949482,76,838,1996,2019,1745203220718892543
8950482,166,875,1980,2008,1745203220718892543
8951482,307,930,1965,1995,1745203220718892543
8952483,508,1004,1941,1982,1745203220718892543
8953483,745,1091,1918,1981,1745203220718892543
8954483,1007,1179,1901,1985,1745203220718892543
8955483,1256,1259,1893,1979,1745203220718892543
8956483,1464,1334,1897,1970,1745203220718892543
8957483,1610,1398,1908,1970,1745203220718892543
8958483,1701,1445,1925,1985,1745203220718892543
8959483,1723,1473,1941,2008,1745203220718892543
8960483,1689,1482,1957,2036,1745203220718892543
8961483,1602,1474,1973,2070,1745203220718892543
8962483,1489,1446,1991,2104,1745203220718892543
8963483,1346,1409,2011,2126,1745203220718892543
8964484,1213,1358,2024,2144,1745203220718892543
8965484,1106,1324,2056,2148,1745203220718892543
8966484,1049,1300,2081,2139,1745203220718892543
8967485,1045,1294,2100,2118,1745203220718892543
8968484,1096,1310,2117,2094,1745203220718892543
8969484,1184,1353,2111,2072,1745203220718892543
8970484,1298,1417,2101,2045,1745203220718892543
8971484,1449,1499,2080,2013,1745203220718892543
8972484,1639,1579,2051,1976,1745203220718892543
8973484,1867,1674,2016,1937,1745203220718892543
8974484,2103,1772,1988,1906,1745203220718892543
8975484,2320,1862,1966,1895,1745203220718892543
8976485,2496,1936,1950,1878,1745203220718892543
8977485,2606,1988,1943,1872,1745203220718892543
8978485,2652,2015,1945,1884,1745203220718892543
8979485,2631,2018,1953,1894,1745203220718892543
8980485,2559,2007,1962,1910,1745203220718892543
8981485,2440,1986,1968,1914,1745203220718892543
8982485,2290,1960,1966,1931,1745203220718892543
8983485,2126,1931,1962,1947,1745203220718892543
8984485,1971,1902,1950,1959,1745203220718892543
8985485,1852,1876,1936,1960,1745203220718892543
8986485,1782,1859,1922,1955,1745203220718892543
8987485,1760,1851,1907,1944,1745203220718892543
8988486,1787,1854,1894,1925,1745203220718892543
8989486,1859,1869,1877,1897,1745203220718892543
8990486,1969,1900,1857,1860,1745203220718892543
8991486,2119,1950,1828,1814,1745203220718892543
8992486,2320,2021,1795,1766,1745203220718892543
8993486,2559,2097,1766,1728,1745203220778853870
8994486,2799,2168,1747,1706,1745203220778853870
8995486,3008,2229,1740,1698,1745203220778853870
8996486,3170,2280,1742,1699,1745203220778853870
8997486,3260,2309,1757,1707,1745203220778853870
8998486,3261,2320,1782,1715,1745203220778853870
8999487,3173,2306,1810,1728,1745203220778853870
9000487,3023,2274,1840,1749,1745203220778853870
9001487,2836,2231,1864,1770,1745203220778853870
9002487,2630,2184,1874,1794,1745203220778853870
9003487,2434,2137,1867,1817,1745203220778853870
9004487,2253,2104,1845,1841,1745203220778853870
9005487,2125,2088,1817,1865,1745203220778853870
9006487,2050,2090,1797,1885,1745203220778853870
9007487,2035,2105,1781,1900,1745203220778853870
9008487,2077,2130,1762,1912,1745203220778853870
9009487,2164,2163,1743,1923,1745203220778853870
9010487,2278,2200,1728,1934,1745203220778853870
9011487,2428,2244,1720,1934,1745203220778853870
9012488,2616,2298,1722,1923,1745203220778853870
9013488,2841,2349,1739,1907,1745203220778853870
9014488,3069,2390,1778,1894,1745203220778853870
9015488,3267,2420,1837,1888,1745203220778853870
9016488,3399,2438,1910,1883,1745203220778853870
9017488,3464,2440,1988,1881,1745203220778853870
9018488,3453,2424,2081,1890,1745203220778853870
9019488,3368,2391,2160,1900,1745203220778853870
9020488,3232,2345,2219,1917,1745203220778853870
9021488,3058,2290,2262,1939,1745203220778853870
9022488,2861,2230,2289,1957,1745203220778853870
9023489,2652,2170,2304,1987,1745203220778853870
9024489,2463,2121,2306,2035,1745203220778853870
9025489,2297,2085,2301,2075,1745203220778853870
9026489,2176,2064,2288,2083,1745203220778853870
9027489,2097,2058,2271,2056,1745203220778853870
9028489,2061,2062,2250,2011,1745203220778853870
9029489,2060,2078,2227,1971,1745203220778853870
9030489,2090,2099,2205,1946,1745203220778853870
9031489,2158,2137,2185,1955,1745203220778853870
9032489,2281,2185,2165,1979,1745203220778853870
9033489,2448,2233,2147,1999,1745203220778853870
9034489,2618,2282,2138,2011,1745203220778853870
9035489,2776,2317,2129,2015,1745203220778853870
9036490,2886,2340,2118,2020,1745203220778853870
9037490,2934,2351,2102,2031,1745203220778853870
9038490,2915,2351,2090,2050,1745203220778853870
9039490,2828,2338,2073,2064,1745203220778853870
9040490,2694,2316,2058,2066,1745203220778853870
9041490,2536,2283,2042,2077,1745203220778853870
9042490,2345,2244,2040,2094,1745203220778853870
9043490,2142,2197,2048,2092,1745203220778853870
9044490,1947,2154,2060,2057,1745203220778853870
9045490,1789,2118,2068,2002,1745203220778853870
9046490,1668,2092,2070,1950,1745203220778853870
9047491,1586,2078,2066,1906,1745203220778853870
9048491,1541,2074,2057,1867,1745203220778853870
9049491,1535,2085,2041,1836,1745203220778853870
9050491,1549,2107,2026,1804,1745203220778853870
9051491,1603,2140,2006,1774,1745203220837825050
9052491,1701,2186,1988,1747,1745203220837825050
9053491,1829,2236,1966,1726,1745203220837825050
9054491,1965,2286,1948,1716,1745203220837825050
9055491,2073,2324,1939,1717,1745203220837825050
9056491,2130,2344,1933,1728,1745203220837825050
9057491,2123,2345,1941,1748,1745203220837825050
9058491,2041,2330,1957,1784,1745203220837825050
9059491,1902,2302,1978,1824,1745203220837825050
9060492,1731,2269,1999,1864,1745203220837825050
9061492,1536,2228,2025,1901,1745203220837825050
9062492,1342,2181,2056,1931,1745203220837825050
9063492,1128,2131,2083,1955,1745203220837825050
9064492,908,2081,2106,1974,1745203220837825050
9065492,719,2032,2121,2006,1745203220837825050
9066492,570,1998,2129,2064,1745203220837825050
9067492,464,1976,2131,2136,1745203220837825050
9068492,371,1966,2125,2219,1745203220837825050
9069492,298,1965,2105,2298,1745203220837825050
9070492,242,1977,2066,2371,1745203220837825050
9071492,202,1998,2012,2436,1745203220837825050
9072493,234,2029,1954,2481,1745203220837825050
9073493,357,2072,1902,2484,1745203220837825050
9074493,533,2112,1867,2453,1745203220837825050
9075493,752,2150,1848,2393,1745203220837825050
9076493,958,2181,1850,2324,1745203220837825050
9077493,1134,2203,1881,2258,1745203220837825050
9078493,1256,2210,1934,2200,1745203220837825050
9079493,1332,2198,2008,2152,1745203220837825050
9080493,1413,2162,2095,2120,1745203220837825050
9081493,1481,2108,2180,2097,1745203220837825050
9082493,1482,2051,2248,2139,1745203220837825050
9083493,1398,1998,2283,2233,1745203220837825050
9084494,1288,1949,2292,2353,1745203220837825050
9085494,1221,1901,2261,2455,1745203220837825050
9086494,1250,1880,2216,2559,1745203220837825050
9087494,1413,1875,2160,2616,1745203220837825050
9088494,1672,1889,2109,2625,1745203220837825050
9089494,2002,1916,2070,2585,1745203220837825050
9090494,2388,1949,2049,2524,1745203220837825050
9091494,2781,1992,2038,2459,1745203220837825050
9092494,3124,2042,2048,2416,1745203220837825050
9093494,3387,2101,2065,2382,1745203220837825050
9094494,3583,2158,2103,2350,1745203220837825050
9095494,3717,2208,2152,2318,1745203220837825050
9096495,3780,2243,2206,2284,1745203220837825050
9097495,3692,2261,2259,2250,1745203220837825050
9098495,3479,2260,2305,2218,1745203220837825050
9099495,3196,2234,2343,2194,1745203220837825050
9100495,2929,2185,2371,2177,1745203220837825050
9101495,2726,2118,2388,2168,1745203220837825050
9102495,2577,2027,2384,2152,1745203220837825050
9103495,2482,1928,2370,2120,1745203220837825050
9104495,2421,1835,2355,2073,1745203220837825050
9105495,2405,1758,2336,2028,1745203220837825050
9106495,2430,1696,2312,1996,1745203220837825050
9107495,2481,1653,2280,1966,1745203220837825050
9108496,2535,1636,2249,1940,1745203220837825050
9109496,2591,1638,2210,1912,1745203220894740468
9110496,2664,1662,2177,1876,1745203220894740468
9111496,2765,1706,2154,1838,1745203220894740468
9112496,2917,1765,2136,1800,1745203220894740468
9113496,3118,1835,2122,1763,1745203220894740468
9114496,3320,1915,2115,1732,1745203220894740468
9115496,3457,2002,2112,1699,1745203220894740468
9116496,3489,2089,2114,1664,1745203220894740468
9117496,3422,2166,2118,1611,1745203220894740468
9118496,3282,2235,2125,1550,1745203220894740468
9119496,3088,2295,2130,1507,1745203220894740468
9120497,2870,2344,2130,1470,1745203220894740468
9121497,2644,2370,2128,1448,1745203220894740468
9122497,2429,2385,2124,1438,1745203220894740468
9123497,2231,2404,2124,1438,1745203220894740468
9124497,2101,2422,2120,1442,1745203220894740468
9125497,2105,2432,2103,1449,1745203220894740468
9126497,2214,2442,2076,1467,1745203220894740468
9127497,2370,2466,2038,1502,1745203220894740468
9128497,2502,2499,2008,1550,1745203220894740468
9129498,2610,2518,1988,1631,1745203220894740468
9130497,2742,2498,1980,1736,1745203220894740468
9131498,2909,2450,1980,1846,1745203220894740468
9132498,3136,2412,1998,1936,1745203220894740468
9133498,3408,2395,2028,1981,1745203220894740468
9134498,3598,2396,2068,1981,1745203220894740468
9135498,3749,2402,2111,1976,1745203220894740468
9136498,3848,2408,2152,1995,1745203220894740468
9137498,3917,2387,2195,2056,1745203220894740468
9138498,3966,2359,2207,2125,1745203220894740468
9139498,3980,2318,2225,2190,1745203220894740468
9140498,3914,2272,2227,2251,1745203220894740468
9141498,3814,2224,2216,2287,1745203220894740468
9142498,3715,2181,2205,2303,1745203220894740468
9143499,3635,2152,2186,2303,1745203220894740468
9144499,3581,2131,2161,2330,1745203220894740468
9145499,3526,2117,2126,2360,1745203220894740468
9146499,3509,2107,2101,2374,1745203220894740468
9147499,3509,2101,2073,2360,1745203220894740468
9148499,3502,2094,2042,2316,1745203220894740468
9149499,3491,2077,2018,2260,1745203220894740468
9150499,3472,2052,1997,2212,1745203220894740468
9151499,3448,2024,1978,2178,1745203220894740468
9152499,3421,2004,1958,2173,1745203220894740468
9153499,3380,1994,1941,2176,1745203220894740468
9154499,3329,1993,1933,2164,1745203220894740468
9155499,3265,2007,1924,2136,1745203220894740468
9156500,3173,2033,1924,2107,1745203220894740468
9157500,3054,2067,1929,2075,1745203220894740468
9158500,2913,2093,1937,2044,1745203220894740468
9159500,2758,2099,1949,2036,1745203220894740468
9160500,2603,2076,1961,2067,1745203220894740468
9161500,2461,2032,1976,2130,1745203220894740468
9162500,2301,1988,1987,2209,1745203220894740468
9163500,2126,1949,2001,2290,1745203220894740468
9164500,1947,1923,2013,2353,1745203220894740468
9165500,1793,1904,2018,2390,1745203220894740468
9166500,1679,1890,2016,2413,1745203220894740468
9167500,1619,1891,2006,2428,1745203220954344871
9168501,1606,1905,1986,2440,1745203220954344871
9169501,1635,1928,1964,2443,1745203220954344871
9170501,1679,1946,1938,2443,1745203220954344871
9171501,1700,1951,1918,2444,1745203220954344871
9172501,1676,1934,1906,2449,1745203220954344871
9173501,1598,1894,1901,2454,1745203220954344871
9174501,1509,1844,1900,2444,1745203220954344871
9175501,1403,1787,1893,2413,1745203220954344871
9176501,1290,1713,1886,2356,1745203220954344871
9177501,1168,1624,1865,2290,1745203220954344871
9178501,1049,1535,1820,2212,1745203220954344871
9179501,955,1452,1753,2140,1745203220954344871
9180502,927,1409,1680,2081,1745203220954344871
9181502,1003,1412,1621,2029,1745203220954344871
9182502,1187,1468,1593,1978,1745203220954344871
9183502,1458,1560,1597,1926,1745203220954344871
9184502,1785,1697,1638,1882,1745203220954344871
9185502,2162,1862,1699,1845,1745203220954344871
9186502,2558,2048,1763,1814,1745203220954344871
9187502,2946,2228,1818,1787,1745203220954344871
9188502,3258,2400,1861,1759,1745203220954344871
9189502,3493,2558,1889,1733,1745203220954344871
9190502,3656,2697,1905,1708,1745203220954344871
9191502,3779,2844,1913,1690,1745203220954344871
9192503,3868,2994,1930,1678,1745203220954344871
9193503,3929,3146,1953,1675,1745203220954344871
9194503,3974,3299,1986,1682,1745203220954344871
9195503,4004,3444,2028,1694,1745203220954344871
9196503,4027,3567,2078,1715,1745203220954344871
9197503,4042,3644,2125,1745,1745203220954344871
9198503,4053,3692,2162,1778,1745203220954344871
9199503,4061,3700,2187,1816,1745203220954344871
9200503,4069,3674,2200,1856,1745203220954344871
9201503,4072,3622,2201,1894,1745203220954344871
9202503,4073,3558,2197,1938,1745203220954344871
9203503,3969,3476,2189,1976,1745203220954344871
9204504,3608,3392,2180,2006,1745203220954344871
9205504,3125,3318,2170,2033,1745203220954344871
9206504,2609,3242,2151,2051,1745203220954344871
9207504,2152,3203,2124,2061,1745203220954344871
9208504,1780,3161,2089,2064,1745203220954344871
9209504,1535,3129,2063,2049,1745203220954344871
9210504,1409,3103,2049,2012,1745203220954344871
9211504,1402,3073,2044,1962,1745203220954344871
9212504,1521,3043,2048,1908,1745203220954344871
9213504,1738,3020,2035,1857,1745203220954344871
9214504,2041,3004,2001,1821,1745203220954344871
9215505,2395,2997,1941,1803,1745203220954344871
9216505,2745,2997,1861,1796,1745203220954344871
9217505,3078,2998,1785,1800,1745203220954344871
9218505,3363,2996,1721,1809,1745203220954344871
9219505,3573,2995,1676,1822,1745203220954344871
9220505,3717,2990,1658,1835,1745203220954344871
9221505,3825,2986,1666,1846,1745203220954344871
9222505,3901,2981,1691,1857,1745203220954344871
9223505,3957,2977,1714,1865,1745203220954344871
9224505,3994,2972,1735,1868,1745203220954344871
9225505,4020,2972,1752,1864,1745203221011025291
9226505,4041,2978,1772,1842,1745203221011025291
9227506,4052,3001,1803,1810,1745203221011025291
9228506,4060,3038,1853,1789,1745203221011025291
9229506,4066,3100,1917,1785,1745203221011025291
9230506,4072,3181,1979,1782,1745203221011025291
9231506,4075,3271,2038,1794,1745203221011025291
9232506,4075,3365,2088,1785,1745203221011025291
9233506,4078,3469,2122,1778,1745203221011025291
9234506,4078,3577,2143,1779,1745203221011025291
9235506,4081,3648,2155,1790,1745203221011025291
9236506,4081,3680,2165,1810,1745203221011025291
9237506,4082,3672,2172,1834,1745203221011025291
9238506,4082,3629,2168,1857,1745203221011025291
9239506,4082,3582,2154,1882,1745203221011025291
9240507,4082,3522,2140,1907,1745203221011025291
9241507,4083,3465,2120,1936,1745203221011025291
9242507,4082,3408,2098,1969,1745203221011025291
9243507,4083,3353,2075,1998,1745203221011025291
9244507,4083,3300,2050,2014,1745203221011025291
9245507,4084,3244,2040,2019,1745203221011025291
9246507,4084,3188,2028,2013,1745203221011025291
9247507,4082,3133,2027,2001,1745203221011025291
9248507,4071,3092,2038,1987,1745203221011025291
9249507,4020,3053,2067,1979,1745203221011025291
9250507,3937,3021,2099,1980,1745203221011025291
9251507,3844,3012,2125,1977,1745203221011025291
9252508,3769,3013,2136,1957,1745203221011025291
9253508,3709,3009,2126,1923,1745203221011025291
9254508,3648,2994,2091,1877,1745203221011025291
9255508,3565,2968,2033,1825,1745203221011025291
9256509,3433,2934,1976,1777,1745203221011025291
9257508,3276,2881,1931,1742,1745203221011025291
9258508,3114,2819,1921,1722,1745203221011025291
9259510,2976,2754,1926,1715,1745203221011025291
9260508,2843,2692,1953,1709,1745203221011025291
9261508,2709,2632,1970,1713,1745203221011025291
9262508,2552,2571,1985,1724,1745203221011025291
9263508,2344,2526,1992,1747,1745203221011025291
9264509,2112,2477,1994,1777,1745203221011025291
9265509,1884,2429,1996,1810,1745203221011025291
9266509,1674,2386,2001,1843,1745203221011025291
9267509,1496,2347,2011,1876,1745203221011025291
9268509,1349,2312,2026,1905,1745203221011025291
9269509,1256,2283,2048,1929,1745203221011025291
9270509,1219,2264,2072,1954,1745203221011025291
9271509,1233,2253,2096,1963,1745203221011025291
9272509,1288,2257,2116,1972,1745203221011025291
9273509,1374,2262,2124,1981,1745203221011025291
9274509,1496,2277,2115,1993,1745203221011025291
9275509,1662,2292,2099,2010,1745203221011025291
9276510,1899,2305,2090,2032,1745203221011025291
9277510,2158,2314,2098,2065,1745203221011025291
9278510,2365,2328,2117,2099,1745203221011025291
9279510,2486,2335,2136,2136,1745203221011025291
9280510,2539,2324,2152,2177,1745203221011025291
9281510,2531,2306,2164,2226,1745203221011025291
9282510,2454,2283,2180,2280,1745203221011025291
9283510,2347,2258,2212,2326,1745203221078177125
9284510,2262,2242,2253,2364,1745203221078177125
9285510,2252,2238,2298,2392,1745203221078177125
9286510,2335,2256,2333,2413,1745203221078177125
9287510,2476,2289,2363,2422,1745203221078177125
9288511,2600,2324,2389,2422,1745203221078177125
9289511,2692,2348,2418,2416,1745203221078177125
9290511,2781,2357,2438,2397,1745203221078177125
9291511,2928,2357,2437,2364,1745203221078177125
9292511,3196,2368,2417,2320,1745203221078177125
9293511,3449,2394,2384,2269,1745203221078177125
9294511,3626,2433,2348,2210,1745203221078177125
9295511,3760,2480,2318,2146,1745203221078177125
9296511,3854,2525,2302,2069,1745203221078177125
9297511,3922,2559,2298,1974,1745203221078177125
9298511,3971,2587,2305,1892,1745203221078177125
9299512,4004,2604,2314,1825,1745203221078177125
9300512,4027,2612,2317,1770,1745203221078177125
9301512,4042,2617,2321,1729,1745203221078177125
9302512,4054,2625,2324,1700,1745203221078177125
9303512,4064,2641,2325,1686,1745203221078177125
9304512,4066,2662,2315,1685,1745203221078177125
9305512,3983,2689,2288,1687,1745203221078177125
9306512,3821,2712,2246,1681,1745203221078177125
9307512,3653,2725,2201,1650,1745203221078177125
9308512,3540,2736,2159,1603,1745203221078177125
9309512,3461,2741,2133,1561,1745203221078177125
9310512,3405,2750,2118,1535,1745203221078177125
9311512,3392,2773,2108,1531,1745203221078177125
9312513,3435,2813,2092,1535,1745203221078177125
9313513,3532,2867,2074,1556,1745203221078177125
9314513,3656,2932,2058,1596,1745203221078177125
9315513,3796,2996,2043,1637,1745203221078177125
9316513,3893,3051,2032,1666,1745203221078177125
9317514,3957,3089,2013,1697,1745203221078177125
9318514,4000,3123,1994,1724,1745203221078177125
9319513,4027,3133,1972,1757,1745203221078177125
9320513,4044,3123,1954,1796,1745203221078177125
9321513,4056,3100,1938,1841,1745203221078177125
9322513,4034,3072,1913,1891,1745203221078177125
9323513,3905,2985,1884,1957,1745203221078177125
9324514,3701,2905,1864,2026,1745203221078177125
9325514,3470,2822,1867,2093,1745203221078177125
9326514,3232,2745,1897,2153,1745203221078177125
9327514,2998,2671,1943,2213,1745203221078177125
9328514,2770,2605,1996,2256,1745203221078177125
9329514,2547,2550,2061,2309,1745203221078177125
9330514,2321,2490,2123,2342,1745203221078177125
9331514,2114,2444,2173,2371,1745203221078177125
9332514,1943,2411,2202,2390,1745203221078177125
9333514,1809,2394,2209,2401,1745203221078177125
9334514,1699,2381,2205,2413,1745203221078177125
9335514,1576,2363,2200,2430,1745203221078177125
9336515,1430,2333,2194,2460,1745203221078177125
9337515,1241,2284,2191,2505,1745203221078177125
9338515,1012,2226,2196,2549,1745203221078177125
9339515,801,2182,2207,2602,1745203221078177125
9340515,640,2162,2220,2700,1745203221078177125
9341515,512,2172,2231,2806,1745203221130338159
9342515,419,2213,2233,2901,1745203221130338159
9343515,338,2256,2224,2984,1745203221130338159
9344515,273,2262,2216,3041,1745203221130338159
9345515,223,2221,2215,3056,1745203221130338159
9346515,184,2150,2226,3018,1745203221130338159
9347515,152,2069,2247,2954,1745203221130338159
9348516,126,1974,2263,2899,1745203221130338159
9349516,105,1872,2268,2866,1745203221130338159
9350516,89,1767,2272,2853,1745203221130338159
9351516,77,1668,2280,2832,1745203221130338159
9352516,67,1580,2289,2778,1745203221130338159
9353516,59,1511,2293,2693,1745203221130338159
9354516,52,1443,2292,2602,1745203221130338159
9355516,47,1381,2278,2541,1745203221130338159
9356516,43,1321,2250,2496,1745203221130338159
9357516,40,1258,2212,2457,1745203221130338159
9358516,38,1190,2165,2399,1745203221130338159
9359516,35,1124,2126,2322,1745203221130338159
9360517,34,1060,2096,2248,1745203221130338159
9361517,33,996,2074,2186,1745203221130338159
9362517,30,933,2064,2146,1745203221130338159
9363517,30,865,2067,2121,1745203221130338159
9364517,29,796,2085,2108,1745203221130338159
9365517,29,730,2123,2100,1745203221130338159
9366517,29,656,2168,2094,1745203221130338159
9367517,28,562,2208,2094,1745203221130338159
9368518,27,466,2232,2096,1745203221130338159
9369517,26,371,2244,2095,1745203221130338159
9370517,27,297,2249,2092,1745203221130338159
9371517,26,244,2253,2080,1745203221130338159
9372518,27,229,2248,2062,1745203221130338159
9373518,26,250,2240,2036,1745203221130338159
9374518,25,299,2230,2018,1745203221130338159
9375518,26,358,2217,2008,1745203221130338159
9376519,26,411,2209,2009,1745203221130338159
9377518,26,453,2194,2020,1745203221130338159
9378518,26,478,2172,2048,1745203221130338159
9379518,25,493,2158,2088,1745203221130338159
9380518,25,501,2146,2129,1745203221130338159
9381518,25,511,2140,2152,1745203221130338159
9382518,24,511,2128,2179,1745203221130338159
9383519,25,511,2113,2210,1745203221130338159
9384519,25,511,2094,2244,1745203221130338159
9385519,24,512,2069,2268,1745203221130338159
9386519,24,524,2035,2287,1745203221130338159
9387519,25,540,1998,2298,1745203221130338159
9388519,25,561,1960,2296,1745203221130338159
9389519,26,585,1921,2289,1745203221130338159
9390519,25,613,1894,2277,1745203221130338159
9391519,117,649,1863,2256,1745203221130338159
9392519,396,692,1836,2224,1745203221130338159
9393519,809,745,1812,2184,1745203221130338159
9394519,1317,803,1802,2137,1745203221130338159
9395519,1850,867,1802,2099,1745203221130338159
9396520,2377,953,1813,2072,1745203221130338159
9397520,2802,1066,1835,2070,1745203221130338159
9398520,3137,1192,1860,2110,1745203221130338159
9399520,3376,1296,1893,2184,1745203221186844101
9400520,3489,1371,1932,2266,1745203221186844101
9401520,3484,1421,1960,2341,1745203221186844101
9402520,3378,1445,1974,2389,1745203221186844101
9403520,3209,1449,1981,2418,1745203221186844101
9404520,3001,1439,1976,2448,1745203221186844101
9405520,2779,1419,1958,2470,1745203221186844101
9406522,2564,1392,1933,2485,1745203221186844101
9407520,2382,1366,1913,2490,1745203221186844101
9408521,2219,1335,1901,2480,1745203221186844101
9409521,2100,1299,1900,2456,1745203221186844101
9410521,2034,1262,1897,2420,1745203221186844101
9411521,2031,1232,1897,2379,1745203221186844101
9412521,2096,1216,1891,2341,1745203221186844101
9413521,2212,1212,1883,2308,1745203221186844101
9414521,2353,1213,1875,2301,1745203221186844101
9415522,2488,1217,1870,2326,1745203221186844101
9416521,2586,1211,1866,2372,1745203221186844101
9417522,2635,1186,1860,2412,1745203221186844101
9418521,2625,1120,1857,2448,1745203221186844101
9419521,2559,1003,1856,2474,1745203221186844101
9420522,2432,852,1858,2491,1745203221186844101
9421522,2260,684,1862,2497,1745203221186844101
9422522,2052,529,1873,2491,1745203221186844101
9423522,1824,417,1886,2493,1745203221186844101
9424522,1595,326,1901,2490,1745203221186844101
9425522,1374,257,1918,2484,1745203221186844101
9426522,1163,206,1930,2466,1745203221186844101
9427522,979,166,1935,2438,1745203221186844101
9428522,826,139,1933,2426,1745203221186844101
9429522,705,134,1924,2443,1745203221186844101
9430522,611,147,1914,2492,1745203221186844101
9431523,555,177,1900,2563,1745203221186844101
9432523,555,224,1888,2651,1745203221186844101
9433523,624,283,1875,2726,1745203221186844101
9434524,737,347,1866,2779,1745203221186844101
9435523,852,409,1867,2803,1745203221186844101
9436523,940,469,1872,2802,1745203221186844101
9437523,977,520,1882,2782,1745203221186844101
9438523,949,573,1906,2750,1745203221186844101
9439523,853,611,1929,2712,1745203221186844101
9440523,700,638,1945,2664,1745203221186844101
9441523,529,660,1954,2613,1745203221186844101
9442523,425,672,1968,2571,1745203221186844101
9443524,340,680,1989,2535,1745203221186844101
9444524,274,688,2013,2490,1745203221186844101
9445524,222,704,2032,2438,1745203221186844101
9446524,180,728,2049,2379,1745203221186844101
9447524,148,755,2057,2312,1745203221186844101
9448524,128,784,2053,2240,1745203221186844101
9449524,102,804,2043,2163,1745203221186844101
9450524,87,822,2035,2072,1745203221186844101
9451524,74,840,2032,1950,1745203221186844101
9452524,64,862,2027,1808,1745203221186844101
9453524,56,897,2026,1668,1745203221186844101
9454524,50,936,2028,1537,1745203221186844101
9455524,45,977,2034,1434,1745203221186844101
9456525,41,1019,2039,1349,1745203221186844101
9457525,38,1057,2050,1291,1745203221246661680
9458525,36,1085,2057,1258,1745203221246661680
9459525,34,1102,2061,1234,1745203221246661680
9460525,33,1112,2052,1212,1745203221246661680
9461525,31,1115,2027,1211,1745203221246661680
9462525,30,1112,2002,1234,1745203221246661680
9463525,29,1098,1979,1277,1745203221246661680
9464525,28,1083,1961,1326,1745203221246661680
9465525,28,1068,1945,1372,1745203221246661680
9466525,27,1062,1923,1404,1745203221246661680
9467526,28,1061,1905,1413,1745203221246661680
9468526,27,1067,1894,1405,1745203221246661680
9469526,26,1080,1900,1394,1745203221246661680
9470526,26,1097,1921,1372,1745203221246661680
9471526,28,1124,1945,1360,1745203221246661680
9472526,26,1172,1961,1350,1745203221246661680
9473526,27,1241,1966,1341,1745203221246661680
9474526,26,1328,1954,1339,1745203221246661680
9475526,26,1419,1939,1346,1745203221246661680
9476526,26,1513,1922,1356,1745203221246661680
9477526,25,1594,1898,1372,1745203221246661680
9478526,54,1676,1875,1393,1745203221246661680
9479526,241,1750,1851,1419,1745203221246661680
9480527,537,1811,1833,1448,1745203221246661680
9481527,896,1860,1820,1480,1745203221246661680
9482527,1264,1892,1815,1521,1745203221246661680
9483527,1611,1915,1814,1556,1745203221246661680
9484527,1950,1938,1814,1610,1745203221246661680
9485527,2285,1964,1806,1664,1745203221246661680
9486527,2606,2000,1793,1707,1745203221246661680
9487527,2938,2048,1783,1738,1745203221246661680
9488527,3244,2110,1776,1760,1745203221246661680
9489527,3475,2187,1766,1772,1745203221246661680
9490527,3640,2273,1753,1776,1745203221246661680
9491528,3763,2370,1741,1777,1745203221246661680
9492528,3853,2473,1736,1771,1745203221246661680
9493529,3920,2565,1741,1758,1745203221246661680
9494528,3953,2681,1766,1736,1745203221246661680
9495528,3998,2784,1803,1715,1745203221246661680
9496528,4021,2876,1848,1697,1745203221246661680
9497528,4039,2961,1889,1686,1745203221246661680
9498528,4049,3017,1922,1684,1745203221246661680
9499528,4058,3046,1947,1681,1745203221246661680
9500528,4065,3045,1959,1680,1745203221246661680
9501528,4068,3017,1964,1669,1745203221246661680
9502528,4073,2961,1961,1634,1745203221246661680
9503529,4075,2915,1952,1613,1745203221246661680
9504529,4076,2845,1937,1612,1745203221246661680
9505529,4079,2786,1918,1632,1745203221246661680
9506529,4078,2730,1906,1676,1745203221246661680
9507529,4082,2696,1906,1730,1745203221246661680
9508529,4081,2680,1914,1770,1745203221246661680
9509529,4081,2681,1932,1791,1745203221246661680
9510529,4082,2701,1955,1801,1745203221246661680
9511529,4082,2733,1986,1811,1745203221246661680
9512529,4082,2775,2022,1813,1745203221246661680
9513529,4082,2820,2068,1811,1745203221246661680
9514529,4082,2866,2110,1809,1745203221246661680
9515529,4083,2902,2145,1814,1745203221303078925
9516530,4081,2929,2165,1828,1745203221303078925
9517530,4083,2946,2176,1857,1745203221303078925
9518530,4082,2948,2170,1898,1745203221303078925
9519530,4082,2940,2157,1947,1745203221303078925
9520530,4083,2933,2137,1997,1745203221303078925
9521530,4083,2921,2114,2042,1745203221303078925
9522530,4072,2905,2089,2080,1745203221303078925
9523530,3968,2885,2067,2107,1745203221303078925
9524530,3794,2866,2058,2125,1745203221303078925
9525530,3612,2852,2052,2140,1745203221303078925
9526530,3473,2844,2054,2152,1745203221303078925
9527530,3332,2849,2064,2156,1745203221303078925
9528531,3181,2867,2081,2158,1745203221303078925
9529531,3033,2887,2092,2153,1745203221303078925
9530531,2929,2901,2101,2139,1745203221303078925
9531531,2909,2909,2095,2114,1745203221303078925
9532531,2989,2918,2069,2081,1745203221303078925
9533531,3146,2917,2029,2050,1745203221303078925
9534531,3348,2940,1985,2023,1745203221303078925
9535531,3568,2945,1938,2008,1745203221303078925
9536531,3730,2936,1885,2002,1745203221303078925
9537531,3844,2917,1826,2005,1745203221303078925
9538531,3921,2890,1765,2021,1745203221303078925
9539531,3968,2856,1706,2045,1745203221303078925
9540532,3974,2821,1664,2077,1745203221303078925
9541532,3948,2782,1640,2113,1745203221303078925
9542532,3892,2738,1650,2147,1745203221303078925
9543532,3808,2688,1694,2176,1745203221303078925
9544532,3702,2636,1762,2198,1745203221303078925
9545532,3588,2588,1854,2209,1745203221303078925
9546532,3481,2553,1966,2210,1745203221303078925
9547532,3372,2516,2086,2206,1745203221303078925
9548532,3286,2482,2198,2196,1745203221303078925
9549532,3222,2453,2278,2190,1745203221303078925
9550532,3178,2427,2341,2181,1745203221303078925
9551533,3163,2410,2366,2170,1745203221303078925
9552533,3195,2406,2357,2157,1745203221303078925
9553533,3283,2404,2323,2140,1745203221303078925
9554533,3418,2410,2294,2131,1745203221303078925
9555533,3558,2410,2275,2128,1745203221303078925
9556533,3674,2402,2264,2130,1745203221303078925
9557533,3766,2385,2261,2137,1745203221303078925
9558533,3812,2358,2272,2150,1745203221303078925
9559533,3809,2325,2288,2166,1745203221303078925
9560533,3764,2285,2303,2190,1745203221303078925
9561533,3676,2242,2308,2214,1745203221303078925
9562533,3556,2194,2300,2241,1745203221303078925
9563533,3388,2147,2280,2266,1745203221303078925
9564534,3203,2101,2243,2289,1745203221303078925
9565534,3025,2066,2198,2308,1745203221303078925
9566534,2873,2038,2145,2324,1745203221303078925
9567534,2752,2024,2097,2331,1745203221303078925
9568534,2667,2016,2054,2332,1745203221303078925
9569534,2617,2012,2021,2329,1745203221303078925
9570534,2590,2013,1991,2320,1745203221303078925
9571534,2588,2019,1967,2309,1745203221303078925
9572534,2621,2028,1955,2293,1745203221303078925
9573534,2688,2041,1961,2277,1745203221363470821
9574534,2768,2049,1988,2266,1745203221363470821
9575535,2834,2044,2014,2267,1745203221363470821
9576535,2870,2029,2033,2272,1745203221363470821
9577535,2867,2005,2050,2284,1745203221363470821
9578535,2830,1973,2066,2299,1745203221363470821
9579535,2772,1931,2096,2314,1745203221363470821
9580535,2702,1880,2129,2331,1745203221363470821
9581535,2622,1821,2152,2348,1745203221363470821
9582535,2535,1755,2161,2362,1745203221363470821
9583535,2425,1684,2170,2374,1745203221363470821
9584535,2301,1614,2194,2381,1745203221363470821
9585535,2173,1553,2235,2384,1745203221363470821
9586535,2051,1514,2285,2374,1745203221363470821
9587535,1946,1485,2331,2354,1745203221363470821
9588536,1881,1474,2357,2320,1745203221363470821
9589536,1867,1482,2368,2273,1745203221363470821
9590536,1922,1510,2358,2214,1745203221363470821
9591536,2056,1550,2336,2159,1745203221363470821
9592536,2250,1618,2324,2110,1745203221363470821
9593536,2482,1696,2315,2065,1745203221363470821
9594536,2726,1785,2313,2028,1745203221363470821
9595536,2971,1875,2326,2011,1745203221363470821
9596536,3178,1966,2362,2022,1745203221363470821
9597536,3306,2057,2422,2066,1745203221363470821
9598536,3330,2129,2493,2135,1745203221363470821
9599536,3230,2174,2552,2226,1745203221363470821
9600537,3025,2178,2572,2336,1745203221363470821
9601537,2762,2141,2571,2452,1745203221363470821
9602537,2465,2066,2559,2557,1745203221363470821
9603537,2137,1962,2536,2614,1745203221363470821
9604537,1817,1849,2496,2638,1745203221363470821
9605537,1563,1742,2446,2620,1745203221363470821
9606537,1400,1651,2380,2572,1745203221363470821
9607537,1309,1587,2312,2518,1745203221363470821
9608537,1301,1555,2253,2457,1745203221363470821
9609537,1376,1555,2205,2412,1745203221363470821
9610538,1523,1590,2166,2377,1745203221363470821
9611537,1720,1657,2128,2315,1745203221363470821
9612538,1966,1755,2089,2214,1745203221363470821
9613538,2253,1879,2045,2104,1745203221363470821
9614538,2549,2022,1998,1988,1745203221363470821
9615538,2825,2176,1958,1867,1745203221363470821
9616538,3069,2328,1921,1747,1745203221363470821
9617538,3268,2476,1890,1644,1745203221363470821
9618538,3410,2605,1858,1563,1745203221363470821
9619538,3485,2720,1834,1516,1745203221363470821
9620538,3509,2813,1811,1482,1745203221363470821
9621538,3505,2885,1794,1462,1745203221363470821
9622538,3482,2937,1780,1468,1745203221363470821
9623538,3435,2972,1766,1516,1745203221363470821
9624539,3368,2995,1745,1580,1745203221363470821
9625539,3289,3011,1725,1644,1745203221363470821
9626539,3211,3032,1714,1691,1745203221363470821
9627539,3148,3061,1715,1736,1745203221363470821
9628539,3120,3098,1732,1787,1745203221363470821
9629539,3132,3134,1764,1854,1745203221363470821
9630540,3188,3166,1809,1925,1745203221363470821
9631539,3301,3202,1860,1984,1745203221420843839
9632539,3478,3238,1904,2010,1745203221420843839
9633539,3654,3272,1937,1998,1745203221420843839
9634539,3781,3291,1958,1966,1745203221420843839
9635540,3870,3305,1967,1939,1745203221420843839
9636540,3932,3316,1961,1925,1745203221420843839
9637540,3978,3325,1946,1934,1745203221420843839
9638540,4009,3326,1925,1950,1745203221420843839
9639540,4028,3314,1908,1958,1745203221420843839
9640540,4009,3292,1900,1962,1745203221420843839
9641540,3954,3265,1901,1967,1745203221420843839
9642540,3890,3242,1906,1972,1745203221420843839
9643540,3830,3225,1918,1978,1745203221420843839
9644540,3799,3219,1937,1973,1745203221420843839
9645540,3813,3226,1958,1968,1745203221420843839
9646540,3887,3246,1975,1949,1745203221420843839
9647540,3958,3282,1977,1917,1745203221420843839
9648541,4003,3331,1958,1876,1745203221420843839
9649541,4030,3387,1926,1828,1745203221420843839
9650541,4048,3451,1898,1776,1745203221420843839
9651541,4060,3524,1876,1708,1745203221420843839
9652541,4067,3597,1858,1635,1745203221420843839
9653541,4072,3687,1848,1570,1745203221420843839
9654541,4076,3777,1853,1526,1745203221420843839
9655541,4077,3857,1873,1483,1745203221420843839
9656541,4079,3922,1914,1444,1745203221420843839
9657541,4080,3968,1977,1414,1745203221420843839
9658541,4081,3997,2052,1379,1745203221420843839
9659541,4082,4020,2128,1332,1745203221420843839
9660542,4082,4038,2201,1274,1745203221420843839
9661542,4083,4050,2257,1211,1745203221420843839
9662542,4082,4058,2293,1154,1745203221420843839
9663542,4083,4065,2301,1106,1745203221420843839
9664542,4083,4069,2284,1081,1745203221420843839
9665542,4084,4062,2244,1072,1745203221420843839
9666542,4085,4076,2189,1073,1745203221420843839
9667542,4084,4077,2130,1061,1745203221420843839
9668542,4086,4082,2078,1037,1745203221420843839
9669544,4084,4082,2029,1017,1745203221420843839
9670542,4085,4092,1988,997,1745203221420843839
9671542,4083,4080,1950,985,1745203221420843839
9672543,4084,4081,1915,979,1745203221420843839
9673543,4084,4082,1890,978,1745203221420843839
9674543,4084,4082,1870,988,1745203221420843839
9675543,4083,4082,1856,1008,1745203221420843839
9676543,4078,4083,1835,1036,1745203221420843839
9677543,4085,4082,1818,1074,1745203221420843839
9678543,4084,4082,1820,1118,1745203221420843839
9679543,4084,4083,1844,1174,1745203221420843839
9680543,4084,4082,1892,1237,1745203221420843839
9681543,4083,4082,1957,1304,1745203221420843839
9682543,4083,4083,2025,1376,1745203221420843839
9683543,4083,4083,2090,1448,1745203221420843839
9684544,4083,4082,2145,1520,1745203221420843839
9685544,4083,4068,2193,1584,1745203221420843839
9686544,4077,3995,2232,1652,1745203221420843839
9687544,3961,3881,2264,1715,1745203221420843839
9688544,3738,3751,2287,1770,1745203221420843839
9689544,3477,3616,2308,1819,1745203221482132498
9690544,3204,3499,2327,1864,1745203221482132498
9691544,2953,3381,2337,1906,1745203221482132498
9692544,2744,3276,2341,1945,1745203221482132498
9693544,2574,3176,2338,1979,1745203221482132498
9694544,2436,3078,2332,2018,1745203221482132498
9695544,2284,2974,2325,2066,1745203221482132498
9696545,2114,2865,2320,2115,1745203221482132498
9697545,1931,2748,2305,2163,1745203221482132498
9698545,1716,2622,2292,2208,1745203221482132498
9699545,1486,2501,2282,2253,1745203221482132498
9700545,1233,2364,2274,2290,1745203221482132498
9701545,979,2226,2272,2326,1745203221482132498
9702545,777,2089,2277,2363,1745203221482132498
9703545,619,1950,2286,2402,1745203221482132498
9704545,505,1817,2296,2435,1745203221482132498
9705545,406,1693,2299,2464,1745203221482132498
9706545,328,1583,2291,2484,1745203221482132498
9707545,267,1492,2277,2496,1745203221482132498
9708546,218,1404,2264,2505,1745203221482132498
9709546,178,1331,2251,2506,1745203221482132498
9710546,148,1269,2238,2502,1745203221482132498
9711546,122,1219,2219,2504,1745203221482132498
9712546,104,1182,2195,2504,1745203221482132498
9713546,88,1160,2169,2506,1745203221482132498
9714546,75,1142,2142,2511,1745203221482132498
9715546,65,1130,2127,2520,1745203221482132498
9716546,58,1116,2120,2530,1745203221482132498
9717546,51,1096,2125,2532,1745203221482132498
9718546,47,1066,2137,2559,1745203221482132498
9719546,42,1025,2152,2577,1745203221482132498
9720547,40,973,2172,2596,1745203221482132498
9721547,36,909,2193,2612,1745203221482132498
9722547,34,839,2215,2619,1745203221482132498
9723547,33,763,2236,2620,1745203221482132498
9724548,32,685,2254,2620,1745203221482132498
9725547,30,610,2269,2621,1745203221482132498
9726547,29,540,2282,2628,1745203221482132498
9727547,28,486,2286,2633,1745203221482132498
9728547,28,429,2276,2635,1745203221482132498
9729547,28,380,2252,2641,1745203221482132498
9730547,27,340,2213,2644,1745203221482132498
9731547,27,314,2163,2640,1745203221482132498
9732548,26,301,2095,2628,1745203221482132498
9733548,26,301,2019,2612,1745203221482132498
9734548,26,315,1948,2600,1745203221482132498
9735548,26,330,1899,2596,1745203221482132498
9736548,26,341,1877,2603,1745203221482132498
9737548,26,343,1881,2619,1745203221482132498
9738548,26,334,1908,2648,1745203221482132498
9739548,26,316,1948,2684,1745203221482132498
9740548,25,295,1995,2728,1745203221482132498
9741548,25,268,2043,2773,1745203221482132498
9742548,25,235,2088,2820,1745203221482132498
9743548,25,198,2125,2861,1745203221482132498
9744549,25,162,2148,2888,1745203221482132498
9745549,25,133,2159,2897,1745203221482132498
9746549,25,109,2155,2892,1745203221482132498
9747549,25,92,2138,2875,1745203221537678709
9748549,25,85,2115,2850,1745203221537678709
9749549,26,88,2089,2820,1745203221537678709
9750549,25,100,2069,2786,1745203221537678709
9751549,25,120,2049,2746,1745203221537678709
9752549,24,149,2028,2700,1745203221537678709
9753549,25,188,2012,2650,1745203221537678709
9754549,23,230,1992,2605,1745203221537678709
9755550,25,268,1977,2577,1745203221537678709
9756550,25,298,1968,2561,1745203221537678709
9757550,24,318,1962,2559,1745203221537678709
9758550,25,325,1966,2561,1745203221537678709
9759550,25,319,1974,2593,1745203221537678709
9760550,25,303,1986,2664,1745203221537678709
9761550,25,280,2001,2768,1745203221537678709
9762550,25,250,2013,2872,1745203221537678709
9763550,25,214,2025,2959,1745203221537678709
9764550,23,177,2034,3014,1745203221537678709
9765552,24,141,2035,3037,1745203221537678709
9766550,26,113,2028,3029,1745203221537678709
9767552,25,100,2014,3005,1745203221537678709
9768551,25,96,1992,2964,1745203221537678709
9769551,24,105,1966,2910,1745203221537678709
9770551,24,124,1940,2849,1745203221537678709
9771551,25,156,1911,2771,1745203221537678709
9772551,25,208,1883,2671,1745203221537678709
9773551,25,269,1860,2559,1745203221537678709
9774551,26,335,1838,2444,1745203221537678709
9775551,25,393,1822,2342,1745203221537678709
9776551,24,444,1817,2265,1745203221537678709
9777551,24,489,1816,2208,1745203221537678709
9778551,24,515,1822,2172,1745203221537678709
9779551,25,545,1838,2154,1745203221537678709
9780552,25,565,1867,2145,1745203221537678709
9781552,24,576,1904,2144,1745203221537678709
9782552,24,573,1947,2146,1745203221537678709
9783552,24,557,1990,2147,1745203221537678709
9784552,27,537,2026,2129,1745203221537678709
9785552,25,518,2048,2094,1745203221537678709
9786552,24,514,2060,2035,1745203221537678709
9787552,24,521,2059,1968,1745203221537678709
9788552,24,544,2051,1881,1745203221537678709
9789552,24,578,2035,1780,1745203221537678709
9790552,70,627,2020,1662,1745203221537678709
9791552,251,685,2002,1545,1745203221537678709
9792553,545,758,1983,1451,1745203221537678709
9793553,929,841,1963,1378,1745203221537678709
9794553,1338,928,1952,1338,1745203221537678709
9795553,1726,1012,1944,1325,1745203221537678709
9796553,2088,1086,1941,1338,1745203221537678709
9797553,2398,1157,1944,1368,1745203221537678709
9798553,2627,1216,1953,1417,1745203221537678709
9799553,2758,1262,1966,1472,1745203221537678709
9800553,2780,1299,1978,1529,1745203221537678709
9801553,2717,1329,1988,1578,1745203221537678709
9802553,2598,1348,2001,1636,1745203221537678709
9803553,2475,1356,2012,1697,1745203221537678709
9804554,2368,1358,2020,1760,1745203221537678709
9805554,2318,1361,2018,1821,1745203221604699295
9806554,2350,1354,2012,1877,1745203221604699295
9807554,2465,1345,2003,1923,1745203221604699295
9808554,2635,1330,1988,1945,1745203221604699295
9809554,2863,1325,1970,1938,1745203221604699295
9810554,3129,1334,1955,1909,1745203221604699295
9811554,3390,1368,1934,1870,1745203221604699295
9812554,3583,1422,1906,1830,1745203221604699295
9813554,3720,1491,1882,1783,1745203221604699295
9814554,3823,1569,1868,1736,1745203221604699295
9815554,3898,1670,1862,1703,1745203221604699295
9816555,3950,1781,1865,1692,1745203221604699295
9817555,3989,1886,1873,1696,1745203221604699295
9818555,4014,1978,1885,1713,1745203221604699295
9819555,4035,2057,1899,1742,1745203221604699295
9820555,4049,2124,1913,1781,1745203221604699295
9821555,4059,2184,1930,1825,1745203221604699295
9822555,4066,2233,1947,1872,1745203221604699295
9823555,4070,2268,1963,1915,1745203221604699295
9824555,4072,2283,1973,1952,1745203221604699295
9825555,4074,2288,1974,1976,1745203221604699295
9826555,4077,2283,1962,1988,1745203221604699295
9827555,4080,2276,1945,1990,1745203221604699295
9828556,4080,2269,1923,1987,1745203221604699295
9829556,4082,2266,1903,1981,1745203221604699295
9830556,4081,2273,1884,1976,1745203221604699295
9831556,4080,2291,1865,1963,1745203221604699295
9832556,4082,2322,1839,1941,1745203221604699295
9833556,4082,2363,1812,1915,1745203221604699295
9834556,4083,2411,1789,1890,1745203221604699295
9835556,4082,2457,1774,1874,1745203221604699295
9836556,4081,2496,1769,1870,1745203221604699295
9837556,4082,2522,1770,1876,1745203221604699295
9838556,4082,2537,1779,1897,1745203221604699295
9839556,4083,2533,1790,1930,1745203221604699295
9840557,4082,2516,1803,1971,1745203221604699295
9841557,4082,2490,1816,2013,1745203221604699295
9842557,4081,2456,1832,2057,1745203221604699295
9843557,4077,2416,1851,2096,1745203221604699295
9844557,3987,2379,1872,2124,1745203221604699295
9845557,3839,2348,1884,2162,1745203221604699295
9846557,3701,2333,1898,2187,1745203221604699295
9847557,3625,2333,1912,2212,1745203221604699295
9848557,3626,2346,1925,2235,1745203221604699295
9849557,3682,2373,1933,2256,1745203221604699295
9850557,3737,2408,1933,2273,1745203221604699295
9851558,3800,2454,1923,2279,1745203221604699295
9852558,3856,2513,1899,2273,1745203221604699295
9853558,3905,2566,1868,2250,1745203221604699295
9854558,3946,2636,1830,2218,1745203221604699295
9855558,3993,2699,1794,2184,1745203221604699295
9856558,4025,2751,1760,2151,1745203221604699295
9857558,4043,2792,1738,2123,1745203221604699295
9858558,4005,2812,1732,2106,1745203221604699295
9859558,3910,2818,1743,2094,1745203221604699295
9860558,3786,2806,1766,2072,1745203221604699295
9861558,3654,2786,1793,2037,1745203221604699295
9862558,3538,2754,1827,2004,1745203221604699295
9863559,3427,2711,1869,1985,1745203221653928168
9864559,3344,2664,1914,1977,1745203221653928168
9865559,3302,2618,1966,1974,1745203221653928168
9866559,3302,2577,2024,1967,1745203221653928168
9867559,3321,2553,2092,1966,1745203221653928168
9868559,3333,2531,2162,1962,1745203221653928168
9869559,3343,2523,2222,1956,1745203221653928168
9870559,3355,2526,2274,1939,1745203221653928168
9871559,3394,2540,2305,1913,1745203221653928168
9872559,3498,2563,2317,1883,1745203221653928168
9873559,3667,2606,2308,1856,1745203221653928168
9874559,3808,2656,2286,1833,1745203221653928168
9875559,3901,2707,2258,1816,1745203221653928168
9876560,3963,2752,2227,1809,1745203221653928168
9877560,4004,2784,2193,1818,1745203221653928168
9878560,4030,2801,2159,1832,1745203221653928168
9879560,4048,2797,2128,1842,1745203221653928168
9880560,4059,2777,2101,1842,1745203221653928168
9881560,4066,2739,2078,1836,1745203221653928168
9882560,4068,2689,2058,1821,1745203221653928168
9883560,3990,2628,2027,1811,1745203221653928168
9884560,3843,2569,1996,1804,1745203221653928168
9885560,3682,2522,1960,1798,1745203221653928168
9886560,3557,2476,1921,1800,1745203221653928168
9887560,3454,2442,1882,1803,1745203221653928168
9888561,3392,2422,1834,1812,1745203221653928168
9889561,3365,2413,1776,1821,1745203221653928168
9890561,3376,2416,1720,1830,1745203221653928168
9891561,3418,2426,1682,1836,1745203221653928168
9892561,3498,2448,1673,1837,1745203221653928168
9893561,3602,2480,1705,1832,1745203221653928168
9894561,3737,2512,1778,1829,1745203221653928168
9895561,3852,2538,1877,1830,1745203221653928168
9896561,3932,2553,2001,1835,1745203221653928168
