timestamp,emg0,emg1,emg2,emg3,pkt_time_ns
9880194,2705,2232,2560,2544,1745226519389229759
9881191,2706,2186,2570,2592,1745226519389229759
9882191,2732,2150,2590,2650,1745226519389229759
9883191,2766,2124,2609,2694,1745226519389229759
9884191,2811,2097,2619,2721,1745226519389229759
9885192,2862,2067,2621,2732,1745226519389229759
9886192,2910,2042,2619,2728,1745226519389229759
9887192,2944,2026,2615,2714,1745226519389229759
9888192,2956,2019,2611,2696,1745226519389229759
9889192,2950,2026,2608,2673,1745226519389229759
9890192,2929,2037,2605,2652,1745226519389229759
9891192,2898,2050,2603,2629,1745226519389229759
9892192,2866,2058,2598,2602,1745226519389229759
9893192,2829,2057,2584,2564,1745226519389229759
9894192,2794,2043,2561,2530,1745226519389229759
9895192,2748,2026,2539,2490,1745226519389229759
9896192,2700,2017,2507,2457,1745226519389229759
9897193,2657,2004,2470,2435,1745226519389229759
9898193,2635,1974,2433,2422,1745226519389229759
9899193,2632,1938,2399,2428,1745226519389229759
9900193,2642,1922,2380,2460,1745226519389229759
9901193,2657,1944,2379,2507,1745226519389229759
9902193,2676,1997,2392,2557,1745226519389229759
9903193,2697,2062,2412,2584,1745226519389229759
9904193,2715,2129,2434,2592,1745226519389229759
9905193,2722,2189,2453,2570,1745226519389229759
9906193,2718,2232,2467,2534,1745226519389229759
9907193,2710,2253,2469,2481,1745226519389229759
9908193,2704,2254,2465,2428,1745226519389229759
9909194,2698,2251,2459,2386,1745226519389229759
9910194,2694,2254,2454,2352,1745226519389229759
9911194,2672,2266,2452,2323,1745226519389229759
9912194,2648,2277,2444,2294,1745226519389229759
9913194,2614,2280,2430,2267,1745226519389229759
9914194,2573,2270,2408,2249,1745226519389229759
9915194,2536,2251,2384,2213,1745226519389229759
9916194,2490,2227,2357,2194,1745226519389229759
9917194,2447,2208,2334,2184,1745226519389229759
9918194,2411,2192,2315,2182,1745226519389229759
9919194,2385,2184,2304,2197,1745226519389229759
9920194,2372,2184,2297,2230,1745226519389229759
9921195,2377,2193,2294,2276,1745226519389229759
9922195,2401,2206,2294,2326,1745226519389229759
9923195,2437,2218,2296,2371,1745226519389229759
9924195,2472,2221,2297,2406,1745226519389229759
9925195,2510,2216,2293,2432,1745226519389229759
9926195,2538,2209,2287,2447,1745226519389229759
9927195,2559,2200,2279,2454,1745226519389229759
9928195,2564,2188,2269,2456,1745226519389229759
9929195,2574,2172,2258,2453,1745226519389229759
9930195,2578,2155,2249,2449,1745226519389229759
9931195,2577,2139,2240,2439,1745226519389229759
9932195,2568,2120,2228,2420,1745226519389229759
9933196,2559,2098,2206,2386,1745226519389229759
9934196,2531,2076,2179,2343,1745226519389229759
9935196,2492,2050,2148,2299,1745226519389229759
9936196,2449,2025,2118,2259,1745226519389229759
9937196,2405,2006,2091,2227,1745226519389229759
9938196,2368,1995,2073,2208,1745226519443946395
9939196,2338,1994,2068,2211,1745226519443946395
9940196,2320,2004,2077,2234,1745226519443946395
9941196,2318,2025,2100,2275,1745226519443946395
9942196,2328,2053,2132,2322,1745226519443946395
9943196,2348,2079,2165,2366,1745226519443946395
9944196,2370,2098,2198,2406,1745226519443946395
9945198,2389,2101,2222,2425,1745226519443946395
9946197,2412,2088,2242,2438,1745226519443946395
9947197,2433,2064,2253,2444,1745226519443946395
9948198,2450,2033,2260,2448,1745226519443946395
9949198,2460,2006,2264,2447,1745226519443946395
9950197,2466,1978,2267,2448,1745226519443946395
9951197,2464,1947,2270,2442,1745226519443946395
9952197,2461,1915,2261,2421,1745226519443946395
9953197,2449,1878,2245,2395,1745226519443946395
9954197,2429,1837,2218,2352,1745226519443946395
9955197,2397,1795,2186,2308,1745226519443946395
9956197,2357,1763,2155,2281,1745226519443946395
9957198,2317,1744,2123,2226,1745226519443946395
9958198,2286,1740,2092,2190,1745226519443946395
9959198,2275,1755,2066,2165,1745226519443946395
9960198,2273,1787,2055,2155,1745226519443946395
9961198,2281,1836,2054,2160,1745226519443946395
9962198,2299,1899,2062,2169,1745226519443946395
9963198,2323,1973,2069,2177,1745226519443946395
9964198,2344,2053,2077,2179,1745226519443946395
9965198,2355,2133,2089,2177,1745226519443946395
9966198,2358,2205,2101,2177,1745226519443946395
9967198,2360,2259,2114,2183,1745226519443946395
9968198,2360,2291,2124,2195,1745226519443946395
9969199,2361,2305,2132,2211,1745226519443946395
9970199,2362,2301,2139,2225,1745226519443946395
9971199,2361,2281,2145,2235,1745226519443946395
9972199,2356,2244,2142,2234,1745226519443946395
9973199,2346,2189,2129,2216,1745226519443946395
9974199,2328,2123,2105,2188,1745226519443946395
9975199,2302,2059,2076,2154,1745226519443946395
9976199,2272,2004,2044,2121,1745226519443946395
9977199,2242,1964,2020,2089,1745226519443946395
9978199,2214,1937,2003,2065,1745226519443946395
9979199,2191,1931,1998,2057,1745226519443946395
9980199,2173,1950,2010,2066,1745226519443946395
9981200,2166,1989,2037,2089,1745226519443946395
9982200,2170,2034,2077,2118,1745226519443946395
9983200,2182,2073,2115,2146,1745226519443946395
9984200,2200,2088,2151,2172,1745226519443946395
9985200,2221,2079,2184,2205,1745226519443946395
9986200,2250,2053,2209,2248,1745226519443946395
9987200,2286,2016,2225,2282,1745226519443946395
9988200,2328,1977,2242,2324,1745226519443946395
9989200,2363,1943,2256,2368,1745226519443946395
9990200,2395,1921,2265,2406,1745226519443946395
9991200,2422,1910,2268,2426,1745226519443946395
9992200,2441,1913,2262,2417,1745226519443946395
9993201,2440,1925,2248,2382,1745226519443946395
9994201,2419,1944,2228,2329,1745226519443946395
9995201,2381,1971,2208,2267,1745226519443946395
9996201,2329,2008,2196,2203,1745226519503847045
9997201,2266,2056,2178,2136,1745226519503847045
9998201,2195,2107,2164,2078,1745226519503847045
9999201,2132,2160,2157,2033,1745226519503847045
10000201,2087,2203,2155,2006,1745226519503847045
10001201,2066,2241,2159,1998,1745226519503847045
10002201,2068,2278,2164,2001,1745226519503847045
10003203,2082,2309,2172,2005,1745226519503847045
10004201,2099,2326,2176,2010,1745226519503847045
10005202,2116,2329,2177,2011,1745226519503847045
10006202,2129,2324,2173,2018,1745226519503847045
10007202,2140,2313,2168,2020,1745226519503847045
10008202,2132,2298,2162,2029,1745226519503847045
10009202,2160,2285,2157,2039,1745226519503847045
10010202,2165,2271,2150,2050,1745226519503847045
10011202,2170,2252,2145,2053,1745226519503847045
10012202,2169,2220,2134,2043,1745226519503847045
10013202,2157,2195,2117,2024,1745226519503847045
10014202,2136,2156,2093,1996,1745226519503847045
10015202,2110,2112,2067,1968,1745226519503847045
10016202,2081,2064,2038,1947,1745226519503847045
10017203,2051,2014,2016,1934,1745226519503847045
10018203,2023,1966,2003,1935,1745226519503847045
10019203,2003,1917,2001,1952,1745226519503847045
10020203,1990,1869,2011,1986,1745226519503847045
10021203,1989,1828,2033,2032,1745226519503847045
10022203,2000,1801,2063,2085,1745226519503847045
10023203,2021,1785,2090,2130,1745226519503847045
10024203,2045,1781,2113,2161,1745226519503847045
10025203,2066,1785,2123,2176,1745226519503847045
10026203,2081,1796,2125,2176,1745226519503847045
10027203,2092,1825,2115,2160,1745226519503847045
10028203,2102,1869,2099,2134,1745226519503847045
10029204,2112,1921,2081,2104,1745226519503847045
10030204,2117,1984,2064,2072,1745226519503847045
10031204,2121,2050,2049,2035,1745226519503847045
10032204,2117,2101,2032,2001,1745226519503847045
10033204,2106,2126,2014,1964,1745226519503847045
10034204,2082,2121,1993,1926,1745226519503847045
10035204,2051,2096,1970,1893,1745226519503847045
10036204,2017,2062,1948,1868,1745226519503847045
10037204,1984,2028,1931,1853,1745226519503847045
10038204,1953,2005,1917,1848,1745226519503847045
10039204,1927,2000,1913,1853,1745226519503847045
10040204,1913,2006,1914,1870,1745226519503847045
10041205,1915,2019,1922,1897,1745226519503847045
10042205,1933,2037,1937,1928,1745226519503847045
10043205,1960,2063,1957,1960,1745226519503847045
10044205,1993,2086,1979,1988,1745226519503847045
10045205,2024,2102,2000,2013,1745226519503847045
10046205,2048,2116,2016,2035,1745226519503847045
10047205,2066,2123,2030,2056,1745226519503847045
10048205,2078,2128,2042,2072,1745226519503847045
10049205,2088,2123,2053,2083,1745226519503847045
10050205,2095,2107,2060,2092,1745226519503847045
10051205,2100,2085,2064,2090,1745226519503847045
10052205,2097,2062,2062,2075,1745226519503847045
10053206,2082,2038,2052,2043,1745226519503847045
10054206,2057,2017,2032,2004,1745226519560913451
10055206,2023,1997,2008,1961,1745226519560913451
10056206,1988,1986,1984,1916,1745226519560913451
10057206,1953,1981,1960,1878,1745226519560913451
10058206,1920,1979,1940,1851,1745226519560913451
10059206,1897,1982,1929,1841,1745226519560913451
10060206,1886,1995,1932,1853,1745226519560913451
10061206,1886,2017,1948,1881,1745226519560913451
10062206,1898,2048,1972,1920,1745226519560913451
10063206,1912,2067,2000,1955,1745226519560913451
10064206,1937,2092,2023,1987,1745226519560913451
10065207,1961,2107,2041,2016,1745226519560913451
10066207,1989,2108,2043,2037,1745226519560913451
10067207,2013,2100,2064,2061,1745226519560913451
10068207,2019,2088,2070,2082,1745226519560913451
10069207,2058,2073,2075,2096,1745226519560913451
10070207,2078,2056,2078,2107,1745226519560913451
10071207,2097,2035,2083,2116,1745226519560913451
10072207,2110,2029,2083,2112,1745226519560913451
10073207,2115,2000,2076,2082,1745226519560913451
10074207,2105,1987,2060,2028,1745226519560913451
10075207,2090,1980,2036,1963,1745226519560913451
10076207,2043,1984,2012,1897,1745226519560913451
10077208,1999,1994,1990,1845,1745226519560913451
10078208,1952,2010,1972,1814,1745226519560913451
10079208,1907,2033,1960,1807,1745226519560913451
10080208,1874,2064,1957,1824,1745226519560913451
10081208,1859,2087,1967,1860,1745226519560913451
10082208,1863,2103,1986,1905,1745226519560913451
10083208,1882,2118,2009,1950,1745226519560913451
10084208,1909,2132,2032,1988,1745226519560913451
10085208,1944,2136,2050,2017,1745226519560913451
10086208,1981,2121,2064,2038,1745226519560913451
10087208,2017,2095,2074,2062,1745226519560913451
10088208,2043,2068,2085,2083,1745226519560913451
10089209,2060,2036,2096,2102,1745226519560913451
10090209,2067,2009,2104,2116,1745226519560913451
10091209,2072,1992,2108,2121,1745226519560913451
10092209,2072,1977,2106,2110,1745226519560913451
10093209,2068,1965,2091,2078,1745226519560913451
10094209,2054,1940,2064,2026,1745226519560913451
10095209,2030,1894,2027,1968,1745226519560913451
10096209,2005,1850,1989,1908,1745226519560913451
10097209,1984,1812,1954,1858,1745226519560913451
10098209,1970,1787,1928,1824,1745226519560913451
10099209,1963,1785,1914,1810,1745226519560913451
10100209,1964,1810,1918,1817,1745226519560913451
10101210,1967,1864,1939,1845,1745226519560913451
10102210,1976,1932,1974,1884,1745226519560913451
10103210,1986,2003,2015,1922,1745226519560913451
10104210,1996,2066,2057,1954,1745226519560913451
10105210,2003,2113,2090,1978,1745226519560913451
10106210,2004,2149,2119,1997,1745226519560913451
10107210,2003,2180,2139,2012,1745226519560913451
10108210,2001,2198,2154,2025,1745226519560913451
10109210,2006,2198,2161,2033,1745226519560913451
10110210,2019,2184,2162,2035,1745226519560913451
10111210,2030,2162,2158,2033,1745226519560913451
10112210,2040,2139,2150,2018,1745226519622997519
10113211,2044,2109,2133,1990,1745226519622997519
10114211,2041,2080,2108,1952,1745226519622997519
10115211,2029,2048,2078,1912,1745226519622997519
10116211,2010,2017,2044,1874,1745226519622997519
10117211,1985,2000,2013,1844,1745226519622997519
10118211,1955,1995,1990,1826,1745226519622997519
10119211,1929,2000,1977,1823,1745226519622997519
10120211,1910,2015,1979,1838,1745226519622997519
10121211,1904,2035,1999,1873,1745226519622997519
10122211,1915,2048,2027,1914,1745226519622997519
10123211,1945,2043,2066,1971,1745226519622997519
10124211,1982,2033,2082,1999,1745226519622997519
10125212,2018,2021,2102,2035,1745226519622997519
10126212,2059,2009,2117,2062,1745226519622997519
10127212,2084,2004,2128,2077,1745226519622997519
10128212,2102,2002,2133,2085,1745226519622997519
10129212,2105,2002,2134,2085,1745226519622997519
10130212,2113,2009,2132,2080,1745226519622997519
10131212,2110,2011,2126,2065,1745226519622997519
10132212,2101,2006,2115,2034,1745226519622997519
10133212,2084,1994,2096,1993,1745226519622997519
10134212,2054,1979,2067,1946,1745226519622997519
10135212,2018,1970,2034,1898,1745226519622997519
10136212,1980,1966,2004,1859,1745226519622997519
10137213,1946,1968,1979,1832,1745226519622997519
10138213,1920,1973,1959,1820,1745226519622997519
10139213,1901,1982,1950,1828,1745226519622997519
10140213,1897,1996,1954,1861,1745226519622997519
10141213,1906,2015,1970,1913,1745226519622997519
10142213,1925,2040,1994,1974,1745226519622997519
10143213,1949,2064,2023,2030,1745226519622997519
10144213,1970,2081,2053,2076,1745226519622997519
10145213,1987,2090,2078,2107,1745226519622997519
10146213,2003,2096,2099,2127,1745226519622997519
10147213,2018,2105,2115,2141,1745226519622997519
10148213,2032,2120,2129,2151,1745226519622997519
10149214,2037,2137,2138,2154,1745226519622997519
10150214,2036,2143,2137,2142,1745226519622997519
10151214,2034,2139,2125,2120,1745226519622997519
10152214,2027,2122,2105,2089,1745226519622997519
10153214,2016,2097,2078,2052,1745226519622997519
10154214,1992,2068,2044,2008,1745226519622997519
10155214,1963,2026,2007,1966,1745226519622997519
10156214,1934,1976,1974,1928,1745226519622997519
10157214,1903,1932,1947,1898,1745226519622997519
10158214,1875,1903,1929,1881,1745226519622997519
10159214,1860,1894,1928,1885,1745226519622997519
10160214,1862,1902,1925,1906,1745226519622997519
10161215,1882,1923,1940,1936,1745226519622997519
10162215,1914,1949,1965,1961,1745226519622997519
10163215,1949,1973,1994,1974,1745226519622997519
10164215,1981,2002,2018,1978,1745226519622997519
10165215,2011,2037,2038,1974,1745226519622997519
10166215,2035,2078,2053,1964,1745226519622997519
10167215,2052,2115,2063,1945,1745226519622997519
10168215,2058,2148,2068,1920,1745226519622997519
10169215,2056,2182,2069,1897,1745226519622997519
10170215,2049,2211,2067,1884,1745226519677187754
10171215,2040,2228,2060,1879,1745226519677187754
10172215,2027,2227,2044,1875,1745226519677187754
10173216,2009,2209,2021,1866,1745226519677187754
10174216,1979,2176,1992,1853,1745226519677187754
10175216,1944,2133,1960,1841,1745226519677187754
10176216,1905,2101,1932,1835,1745226519677187754
10177216,1866,2068,1913,1836,1745226519677187754
10178216,1835,2036,1891,1842,1745226519677187754
10179217,1819,2017,1884,1864,1745226519677187754
10180216,1812,2010,1886,1883,1745226519677187754
10181216,1818,2031,1908,1923,1745226519677187754
10182216,1838,2069,1940,1958,1745226519677187754
10183216,1881,2106,1958,2007,1745226519677187754
10184216,1940,2124,1982,2025,1745226519677187754
10185217,1997,2128,2002,2053,1745226519677187754
10186217,2054,2121,2018,2074,1745226519677187754
10187217,2091,2095,2031,2092,1745226519677187754
10188217,2112,2092,2042,2105,1745226519677187754
10189217,2121,2083,2050,2112,1745226519677187754
10190217,2124,2081,2056,2107,1745226519677187754
10191217,2128,2080,2057,2092,1745226519677187754
10192217,2126,2101,2058,2064,1745226519677187754
10193217,2114,2113,2044,2020,1745226519677187754
10194217,2092,2115,2019,1969,1745226519677187754
10195217,2059,2102,1987,1918,1745226519677187754
10196217,2018,2074,1952,1881,1745226519677187754
10197218,1975,2041,1920,1858,1745226519677187754
10198218,1936,2013,1893,1848,1745226519677187754
10199218,1904,1997,1876,1859,1745226519677187754
10200218,1883,1996,1873,1889,1745226519677187754
10201218,1880,2014,1884,1937,1745226519677187754
10202218,1891,2048,1907,1990,1745226519677187754
10203218,1914,2084,1937,2042,1745226519677187754
10204218,1942,2120,1963,2089,1745226519677187754
10205218,1972,2150,1986,2125,1745226519677187754
10206218,2000,2169,2002,2150,1745226519677187754
10207218,2025,2173,2012,2166,1745226519677187754
10208218,2050,2163,2017,2173,1745226519677187754
10209219,2072,2145,2018,2172,1745226519677187754
10210219,2092,2125,2019,2166,1745226519677187754
10211219,2106,2106,2019,2155,1745226519677187754
10212219,2110,2086,2014,2133,1745226519677187754
10213219,2100,2068,1999,2096,1745226519677187754
10214219,2077,2048,1974,2048,1745226519677187754
10215219,2044,2020,1942,1992,1745226519677187754
10216219,2011,1992,1912,1944,1745226519677187754
10217219,1977,1972,1884,1906,1745226519677187754
10218219,1940,1965,1865,1882,1745226519677187754
10219219,1907,1973,1854,1874,1745226519677187754
10220219,1889,1990,1851,1887,1745226519677187754
10221220,1889,2009,1861,1919,1745226519677187754
10222220,1907,2033,1884,1962,1745226519677187754
10223220,1935,2060,1915,2005,1745226519677187754
10224220,1964,2083,1948,2043,1745226519677187754
10225220,1984,2108,1977,2075,1745226519677187754
10226220,2009,2131,1998,2096,1745226519677187754
10227220,2025,2141,2014,2112,1745226519677187754
10228220,2037,2141,2026,2121,1745226519764724350
10229220,2048,2136,2035,2126,1745226519764724350
10230220,2052,2127,2042,2130,1745226519764724350
10231220,2060,2120,2044,2128,1745226519764724350
10232220,2066,2105,2039,2114,1745226519764724350
10233221,2066,2080,2024,2084,1745226519764724350
10234221,2056,2051,2002,2045,1745226519764724350
10235221,2030,2021,1974,2006,1745226519764724350
10236221,1995,2006,1948,1971,1745226519764724350
10237221,1954,2002,1921,1942,1745226519764724350
10238221,1916,2006,1902,1924,1745226519764724350
10239221,1883,2025,1893,1923,1745226519764724350
10240221,1857,2075,1894,1933,1745226519764724350
10241221,1846,2099,1908,1963,1745226519764724350
10242221,1859,2130,1933,1999,1745226519764724350
10243221,1891,2141,1956,2034,1745226519764724350
10244221,1933,2134,1979,2067,1745226519764724350
10245222,1978,2115,1998,2093,1745226519764724350
10246222,2018,2090,2013,2118,1745226519764724350
10247222,2053,2060,2026,2140,1745226519764724350
10248222,2080,2035,2037,2157,1745226519764724350
10249222,2098,2019,2051,2169,1745226519764724350
10250222,2107,2012,2061,2173,1745226519764724350
10251222,2110,2017,2072,2166,1745226519764724350
10252222,2105,2022,2080,2141,1745226519764724350
10253222,2091,2018,2077,2096,1745226519764724350
10254222,2065,2008,2062,2036,1745226519764724350
10255222,2026,2000,2037,1974,1745226519764724350
10256222,1982,1989,2011,1920,1745226519764724350
10257223,1938,1970,1986,1876,1745226519764724350
10258223,1899,1957,1965,1850,1745226519764724350
10259223,1869,1961,1955,1845,1745226519764724350
10260223,1854,1980,1957,1860,1745226519764724350
10261223,1854,2016,1973,1897,1745226519764724350
10262223,1868,2061,2000,1942,1745226519764724350
10263223,1889,2108,2030,1990,1745226519764724350
10264223,1914,2149,2060,2030,1745226519764724350
10265223,1941,2181,2083,2062,1745226519764724350
10266223,1965,2201,2099,2084,1745226519764724350
10267223,1987,2209,2108,2096,1745226519764724350
10268223,2008,2207,2113,2106,1745226519764724350
10269224,2019,2200,2116,2108,1745226519764724350
10270224,2032,2192,2115,2107,1745226519764724350
10271224,2038,2181,2113,2099,1745226519764724350
10272224,2041,2160,2105,2082,1745226519764724350
10273224,2036,2137,2085,2054,1745226519764724350
10274224,2021,2110,2059,2014,1745226519764724350
10275224,1996,2081,2025,1977,1745226519764724350
10276224,1968,2052,1994,1937,1745226519764724350
10277224,1938,2026,1965,1907,1745226519764724350
10278224,1908,2009,1946,1892,1745226519764724350
10279224,1885,2003,1938,1896,1745226519764724350
10280224,1875,2009,1942,1922,1745226519764724350
10281225,1875,2027,1963,1963,1745226519764724350
10282225,1891,2054,1994,2013,1745226519764724350
10283225,1922,2075,2025,2062,1745226519764724350
10284225,1957,2089,2056,2102,1745226519764724350
10285225,1994,2095,2080,2131,1745226519764724350
10286225,2025,2095,2098,2151,1745226519792768625
10287225,2052,2090,2109,2161,1745226519792768625
10288225,2070,2084,2116,2165,1745226519792768625
10289225,2084,2077,2118,2165,1745226519792768625
10290225,2092,2074,2120,2161,1745226519792768625
10291225,2094,2075,2118,2149,1745226519792768625
10292225,2092,2074,2111,2125,1745226519792768625
10293226,2082,2067,2093,2089,1745226519792768625
10294226,2060,2054,2069,2042,1745226519792768625
10295226,2025,2036,2037,1998,1745226519792768625
10296226,1987,2019,2008,1958,1745226519792768625
10297226,1952,2006,1981,1929,1745226519792768625
10298226,1918,1997,1960,1909,1745226519792768625
10299228,1892,1995,1948,1909,1745226519792768625
10300226,1884,2004,1950,1929,1745226519792768625
10301226,1889,2022,1968,1964,1745226519792768625
10302226,1907,2050,1994,2011,1745226519792768625
10303226,1939,2075,2024,2057,1745226519792768625
10304226,1972,2093,2054,2094,1745226519792768625
10305227,2003,2107,2076,2121,1745226519792768625
10306227,2030,2112,2091,2140,1745226519792768625
10307227,2056,2110,2102,2152,1745226519792768625
10308227,2073,2106,2108,2160,1745226519792768625
10309227,2084,2103,2113,2168,1745226519792768625
10310227,2084,2099,2116,2172,1745226519792768625
10311227,2092,2094,2120,2178,1745226519792768625
10312227,2088,2071,2116,2170,1745226519792768625
10313227,2074,2065,2105,2149,1745226519792768625
10314227,2052,2049,2081,2113,1745226519792768625
10315227,2022,2037,2052,2067,1745226519792768625
10316227,1990,2031,2019,2018,1745226519792768625
10317228,1959,2021,1990,1974,1745226519792768625
10318228,1934,2003,1964,1940,1745226519792768625
10319228,1925,1982,1948,1920,1745226519792768625
10320228,1928,1969,1944,1920,1745226519792768625
10321228,1942,1972,1955,1941,1745226519792768625
10322228,1967,1987,1974,1976,1745226519792768625
10323228,1998,2006,2000,2014,1745226519792768625
10324228,2031,2022,2026,2049,1745226519792768625
10325228,2064,2032,2071,2074,1745226519792768625
10326228,2086,2039,2067,2094,1745226519792768625
10327228,2102,2044,2078,2123,1745226519792768625
10328228,2114,2050,2086,2116,1745226519792768625
10329229,2117,2054,2091,2120,1745226519792768625
10330229,2123,2057,2092,2124,1745226519792768625
10331229,2123,2058,2092,2122,1745226519792768625
10332229,2117,2054,2086,2112,1745226519792768625
10333229,2104,2040,2073,2086,1745226519792768625
10334229,2081,2024,2051,2051,1745226519792768625
10335229,2048,2009,2021,2012,1745226519792768625
10336229,2010,1998,1994,1980,1745226519792768625
10337229,1974,1998,1969,1959,1745226519792768625
10338229,1941,2011,1952,1947,1745226519792768625
10339229,1913,2028,1946,1953,1745226519792768625
10340229,1896,2048,1948,1972,1745226519792768625
10341230,1898,2066,1965,2006,1745226519792768625
10342230,1921,2082,1987,2048,1745226519792768625
10343230,1960,2093,2012,2082,1745226519792768625
10344230,2000,2093,2035,2109,1745226519854721236
10345230,2036,2088,2053,2130,1745226519854721236
10346230,2064,2075,2067,2144,1745226519854721236
10347230,2090,2060,2075,2152,1745226519854721236
10348232,2109,2041,2083,2150,1745226519854721236
10349230,2124,2026,2088,2150,1745226519854721236
10350230,2134,2014,2092,2149,1745226519854721236
10351230,2140,2006,2098,2143,1745226519854721236
10352230,2139,1998,2098,2125,1745226519854721236
10353231,2129,1988,2091,2095,1745226519854721236
10354231,2108,1973,2073,2054,1745226519854721236
10355231,2080,1949,2048,2009,1745226519854721236
10356231,2048,1921,2017,1969,1745226519854721236
10357231,2014,1892,1992,1938,1745226519854721236
10358231,1987,1875,1974,1914,1745226519854721236
10359231,1978,1873,1967,1905,1745226519854721236
10360231,1953,1884,1976,1916,1745226519854721236
10361231,1958,1910,1998,1944,1745226519854721236
10362231,1978,1949,2030,1980,1745226519854721236
10363231,2009,1987,2069,2019,1745226519854721236
10364231,2042,2020,2104,2056,1745226519854721236
10365232,2073,2051,2133,2083,1745226519854721236
10366232,2098,2072,2158,2106,1745226519854721236
10367232,2109,2083,2179,2125,1745226519854721236
10368232,2129,2091,2197,2139,1745226519854721236
10369232,2140,2090,2203,2153,1745226519854721236
10370232,2150,2082,2204,2164,1745226519854721236
10371232,2158,2068,2200,2166,1745226519854721236
10372232,2161,2052,2190,2154,1745226519854721236
10373232,2155,2030,2172,2122,1745226519854721236
10374232,2137,2006,2147,2075,1745226519854721236
10375232,2110,1986,2116,2017,1745226519854721236
10376232,2075,1974,2083,1961,1745226519854721236
10377233,2032,1972,2053,1912,1745226519854721236
10378233,1993,1974,2028,1874,1745226519854721236
10379233,1960,1981,2014,1859,1745226519854721236
10380233,1941,1995,2014,1869,1745226519854721236
10381233,1939,2016,2026,1905,1745226519854721236
10382233,1950,2041,2052,1957,1745226519854721236
10383233,1970,2066,2080,2010,1745226519854721236
10384233,1994,2083,2106,2065,1745226519854721236
10385233,2014,2091,2128,2105,1745226519854721236
10386233,2033,2098,2141,2132,1745226519854721236
10387233,2049,2107,2148,2149,1745226519854721236
10388233,2062,2103,2150,2152,1745226519854721236
10389234,2075,2108,2148,2146,1745226519854721236
10390234,2092,2113,2142,2130,1745226519854721236
10391234,2112,2109,2131,2109,1745226519854721236
10392234,2131,2091,2118,2080,1745226519854721236
10393234,2138,2065,2098,2040,1745226519854721236
10394234,2130,2032,2069,1994,1745226519854721236
10395234,2108,2001,2036,1952,1745226519854721236
10396234,2080,1972,2004,1914,1745226519854721236
10397234,2051,1950,1978,1888,1745226519854721236
10398234,2022,1936,1956,1872,1745226519854721236
10399234,2000,1936,1944,1876,1745226519854721236
10400234,1986,1950,1945,1898,1745226519854721236
10401235,1986,1974,1958,1936,1745226519854721236
10402235,1998,2004,1980,1978,1745226519911296761
10403235,2021,2031,2008,2017,1745226519911296761
10404235,2051,2055,2032,2048,1745226519911296761
10405235,2078,2068,2052,2066,1745226519911296761
10406235,2102,2075,2066,2076,1745226519911296761
10407235,2120,2081,2076,2083,1745226519911296761
10408235,2131,2094,2084,2084,1745226519911296761
10409235,2141,2108,2088,2085,1745226519911296761
10410235,2149,2117,2090,2085,1745226519911296761
10411235,2156,2118,2086,2080,1745226519911296761
10412235,2160,2118,2076,2064,1745226519911296761
10413237,2156,2080,2058,2039,1745226519911296761
10414236,2144,2040,2029,2002,1745226519911296761
10415236,2117,2005,2001,1962,1745226519911296761
10416236,2083,1978,1971,1932,1745226519911296761
10417236,2050,1966,1946,1901,1745226519911296761
10418236,2017,1936,1932,1885,1745226519911296761
10419236,1991,1929,1933,1886,1745226519911296761
10420236,1982,1933,1951,1905,1745226519911296761
10421236,1982,1954,1983,1940,1745226519911296761
10422236,1994,1982,2024,1983,1745226519911296761
10423236,2016,2012,2068,2024,1745226519911296761
10424236,2044,2038,2106,2059,1745226519911296761
10425237,2073,2072,2133,2096,1745226519911296761
10426237,2099,2069,2158,2098,1745226519911296761
10427237,2128,2074,2173,2109,1745226519911296761
10428237,2148,2079,2185,2117,1745226519911296761
10429237,2163,2067,2192,2125,1745226519911296761
10430237,2170,2069,2197,2129,1745226519911296761
10431237,2170,2066,2197,2130,1745226519911296761
10432237,2166,2065,2192,2120,1745226519911296761
10433237,2156,2051,2180,2098,1745226519911296761
10434237,2138,2027,2161,2067,1745226519911296761
10435237,2115,2003,2137,2030,1745226519911296761
10436237,2089,1980,2110,1996,1745226519911296761
10437238,2068,1962,2085,1970,1745226519911296761
10438238,2050,1949,2066,1952,1745226519911296761
10439238,2037,1951,2056,1947,1745226519911296761
10440238,2030,1972,2059,1953,1745226519911296761
10441238,2027,2013,2072,1970,1745226519911296761
10442238,2027,2066,2090,1993,1745226519911296761
10443238,2028,2114,2106,2012,1745226519911296761
10444238,2031,2148,2120,2027,1745226519911296761
10445238,2035,2170,2129,2037,1745226519911296761
10446238,2041,2184,2137,2044,1745226519911296761
10447238,2052,2187,2141,2052,1745226519911296761
10448238,2060,2181,2144,2053,1745226519911296761
10449239,2069,2171,2143,2054,1745226519911296761
10450239,2075,2156,2142,2053,1745226519911296761
10451239,2083,2141,2139,2051,1745226519911296761
10452239,2089,2123,2130,2038,1745226519911296761
10453239,2089,2098,2116,2020,1745226519911296761
10454239,2075,2073,2094,1990,1745226519911296761
10455239,2052,2042,2069,1958,1745226519911296761
10456239,2019,2018,2043,1928,1745226519911296761
10457239,1988,2008,2022,1905,1745226519911296761
10458239,1961,2000,2005,1892,1745226519911296761
10459239,1939,1996,1998,1896,1745226519911296761
10460239,1926,2001,2002,1918,1745226519971565117
10461240,1928,2019,2016,1956,1745226519971565117
10462240,1940,2044,2038,2003,1745226519971565117
10463240,1964,2074,2065,2053,1745226519971565117
10464240,1988,2099,2088,2094,1745226519971565117
10465240,2011,2119,2107,2128,1745226519971565117
10466240,2036,2132,2121,2155,1745226519971565117
10467240,2038,2137,2131,2178,1745226519971565117
10468240,2043,2132,2141,2194,1745226519971565117
10469240,2042,2128,2148,2205,1745226519971565117
10470240,2037,2125,2154,2209,1745226519971565117
10471240,2033,2130,2156,2203,1745226519971565117
10472240,2029,2134,2154,2184,1745226519971565117
10473241,2025,2128,2140,2142,1745226519971565117
10474241,2021,2109,2112,2089,1745226519971565117
10475241,2016,2053,2073,2033,1745226519971565117
10476241,2003,2005,2035,1984,1745226519971565117
10477241,1979,1968,2003,1948,1745226519971565117
10478241,1948,1945,1978,1924,1745226519971565117
10479241,1923,1934,1974,1918,1745226519971565117
10480241,1913,1938,1960,1938,1745226519971565117
10481241,1913,1960,1971,1978,1745226519971565117
10482241,1926,1989,1994,2025,1745226519971565117
10483241,1947,2018,2020,2077,1745226519971565117
10484241,1972,2040,2048,2120,1745226519971565117
10485242,1995,2051,2066,2157,1745226519971565117
10486242,2013,2045,2080,2165,1745226519971565117
10487242,2032,2025,2086,2169,1745226519971565117
10488242,2054,1995,2088,2171,1745226519971565117
10489242,2074,1966,2088,2171,1745226519971565117
10490242,2090,1955,2088,2173,1745226519971565117
10491242,2096,1956,2088,2177,1745226519971565117
10492242,2097,1964,2084,2173,1745226519971565117
10493242,2086,1972,2074,2156,1745226519971565117
10494242,2062,1970,2054,2124,1745226519971565117
10495242,2030,1955,2026,2088,1745226519971565117
10496242,1997,1933,1999,2051,1745226519971565117
10497243,1960,1916,1976,2017,1745226519971565117
10498243,1928,1900,1956,1987,1745226519971565117
10499243,1908,1885,1941,1971,1745226519971565117
10500243,1908,1874,1937,1974,1745226519971565117
10501243,1925,1881,1945,1996,1745226519971565117
10502243,1955,1902,1965,2027,1745226519971565117
10503243,1993,1928,1988,2060,1745226519971565117
10504243,2033,1950,2011,2088,1745226519971565117
10505243,2069,1968,2031,2110,1745226519971565117
10506243,2097,1982,2050,2128,1745226519971565117
10507243,2117,1996,2060,2144,1745226519971565117
10508243,2132,2008,2067,2154,1745226519971565117
10509244,2141,2013,2070,2171,1745226519971565117
10510244,2149,2016,2072,2187,1745226519971565117
10511244,2156,2016,2069,2202,1745226519971565117
10512244,2160,2011,2062,2206,1745226519971565117
10513244,2165,1997,2044,2194,1745226519971565117
10514244,2158,1981,2019,2165,1745226519971565117
10515244,2139,1968,1992,2126,1745226519971565117
10516244,2105,1961,1968,2081,1745226519971565117
10517244,2063,1969,1940,2034,1745226519971565117
10518244,2017,1990,1921,1993,1745226520032839921
10519244,1979,2029,1913,1965,1745226520032839921
10520244,1948,2084,1916,1954,1745226520032839921
10521245,1932,2140,1931,1962,1745226520032839921
10522245,1932,2195,1955,1984,1745226520032839921
10523245,1948,2241,1982,2011,1745226520032839921
10524245,1973,2275,2006,2038,1745226520032839921
10525245,2002,2301,2026,2062,1745226520032839921
10526245,2028,2318,2041,2080,1745226520032839921
10527245,2050,2328,2051,2093,1745226520032839921
10528245,2067,2326,2058,2104,1745226520032839921
10529245,2080,2315,2063,2110,1745226520032839921
10530246,2091,2297,2064,2114,1745226520032839921
10531245,2115,2281,2060,2116,1745226520032839921
10532246,2107,2260,2056,2109,1745226520032839921
10533246,2105,2238,2037,2091,1745226520032839921
10534246,2093,2201,2012,2059,1745226520032839921
10535246,2070,2161,1981,2012,1745226520032839921
10536246,2039,2122,1950,1980,1745226520032839921
10537246,2005,2089,1921,1954,1745226520032839921
10538246,1972,2069,1899,1941,1745226520032839921
10539246,1942,2080,1887,1945,1745226520032839921
10540246,1924,2106,1888,1967,1745226520032839921
10541246,1923,2144,1902,1998,1745226520032839921
10542246,1939,2184,1928,2056,1745226520032839921
10543246,1970,2218,1954,2101,1745226520032839921
10544246,2006,2242,1979,2140,1745226520032839921
10545247,2041,2256,2000,2171,1745226520032839921
10546247,2074,2260,2016,2194,1745226520032839921
10547247,2091,2256,2028,2211,1745226520032839921
10548247,2115,2250,2036,2224,1745226520032839921
10549247,2128,2241,2042,2232,1745226520032839921
10550247,2133,2232,2044,2234,1745226520032839921
10551247,2134,2222,2044,2229,1745226520032839921
10552247,2129,2210,2037,2209,1745226520032839921
10553247,2117,2186,2019,2168,1745226520032839921
10554247,2104,2144,1988,2113,1745226520032839921
10555247,2084,2095,1952,2056,1745226520032839921
10556247,2059,2052,1915,2005,1745226520032839921
10557248,2025,2016,1885,1970,1745226520032839921
10558248,1992,1998,1864,1950,1745226520032839921
10559248,1960,1998,1856,1950,1745226520032839921
10560248,1934,2016,1859,1974,1745226520032839921
10561248,1920,2054,1876,2016,1745226520032839921
10562248,1920,2093,1904,2067,1745226520032839921
10563248,1933,2126,1934,2112,1745226520032839921
10564248,1955,2137,1960,2144,1745226520032839921
10565248,1987,2120,1977,2164,1745226520032839921
10566248,2029,2089,1986,2173,1745226520032839921
10567248,2072,2064,1992,2181,1745226520032839921
10568248,2099,2041,1995,2182,1745226520032839921
10569249,2117,2022,1997,2184,1745226520032839921
10570249,2126,2008,1998,2184,1745226520032839921
10571249,2131,1997,1997,2180,1745226520032839921
10572249,2126,1988,1992,2165,1745226520032839921
10573249,2117,1978,1978,2136,1745226520032839921
10574249,2089,1964,1958,2090,1745226520032839921
10575249,2049,1946,1933,2037,1745226520032839921
10576249,2005,1924,1905,1987,1745226520085759855
10577249,1967,1903,1878,1946,1745226520085759855
10578249,1930,1891,1860,1920,1745226520085759855
10579249,1899,1893,1852,1913,1745226520085759855
10580249,1881,1910,1856,1926,1745226520085759855
10581250,1884,1939,1869,1960,1745226520085759855
10582250,1906,1973,1896,2007,1745226520085759855
10583250,1941,2008,1930,2058,1745226520085759855
10584250,1977,2041,1963,2100,1745226520085759855
10585250,2008,2068,1992,2134,1745226520085759855
10586250,2032,2085,2017,2161,1745226520085759855
10587250,2053,2098,2035,2182,1745226520085759855
10588252,2070,2112,2051,2196,1745226520085759855
10589250,2079,2126,2061,2205,1745226520085759855
10590250,2082,2134,2069,2214,1745226520085759855
10591250,2080,2137,2077,2216,1745226520085759855
10592250,2068,2126,2080,2207,1745226520085759855
10593251,2044,2097,2075,2178,1745226520085759855
10594251,2014,2056,2059,2137,1745226520085759855
10595251,1977,2012,2034,2089,1745226520085759855
10596251,1937,1977,2017,2041,1745226520085759855
10597251,1900,1944,1972,1998,1745226520085759855
10598251,1891,1910,1942,1961,1745226520085759855
10599251,1892,1877,1914,1937,1745226520085759855
10600251,1910,1852,1896,1932,1745226520085759855
10601251,1958,1846,1891,1948,1745226520085759855
10602251,1988,1873,1907,1980,1745226520085759855
10603251,2027,1920,1933,2014,1745226520085759855
10604251,2062,1977,1962,2049,1745226520085759855
10605252,2089,2031,1988,2069,1745226520085759855
10606252,2111,2075,2008,2081,1745226520085759855
10607252,2128,2102,2024,2090,1745226520085759855
10608252,2141,2118,2034,2094,1745226520085759855
10609252,2150,2124,2045,2102,1745226520085759855
10610252,2154,2124,2056,2113,1745226520085759855
10611252,2156,2118,2065,2122,1745226520085759855
10612252,2147,2104,2072,2125,1745226520085759855
10613252,2126,2081,2070,2113,1745226520085759855
10614252,2092,2057,2059,2086,1745226520085759855
10615252,2045,2033,2034,2048,1745226520085759855
10616252,2001,2011,2004,2004,1745226520085759855
10617253,1958,1990,1972,1964,1745226520085759855
10618253,1925,1963,1942,1926,1745226520085759855
10619253,1912,1936,1916,1905,1745226520085759855
10620253,1917,1925,1902,1904,1745226520085759855
10621253,1944,1940,1905,1924,1745226520085759855
10622253,1980,1980,1925,1963,1745226520085759855
10623253,2019,2030,1956,2004,1745226520085759855
10624253,2058,2078,1989,2041,1745226520085759855
10625253,2090,2114,2022,2072,1745226520085759855
10626253,2113,2136,2051,2091,1745226520085759855
10627253,2129,2150,2072,2106,1745226520085759855
10628253,2139,2146,2086,2113,1745226520085759855
10629254,2146,2145,2096,2117,1745226520085759855
10630254,2148,2149,2104,2120,1745226520085759855
10631254,2147,2163,2108,2121,1745226520085759855
10632254,2142,2170,2106,2112,1745226520085759855
10633254,2130,2160,2093,2086,1745226520085759855
10634254,2109,2129,2068,2049,1745226520148394022
10635254,2083,2083,2030,2000,1745226520148394022
10636254,2052,2033,1993,1956,1745226520148394022
10637254,2018,1993,1955,1918,1745226520148394022
10638254,1987,1965,1925,1892,1745226520148394022
10639254,1966,1951,1901,1882,1745226520148394022
10640254,1956,1957,1891,1890,1745226520148394022
10641255,1962,1985,1898,1917,1745226520148394022
10642255,1985,2024,1922,1955,1745226520148394022
10643255,2009,2062,1954,1990,1745226520148394022
10644255,2041,2090,1985,2019,1745226520148394022
10645255,2075,2106,2009,2041,1745226520148394022
10646255,2102,2121,2028,2056,1745226520148394022
10647255,2120,2128,2039,2067,1745226520148394022
10648255,2133,2131,2050,2075,1745226520148394022
10649255,2144,2149,2056,2081,1745226520148394022
10650256,2146,2134,2059,2089,1745226520148394022
10651255,2156,2117,2061,2095,1745226520148394022
10652255,2154,2105,2061,2089,1745226520148394022
10653256,2138,2081,2052,2068,1745226520148394022
10654256,2106,2042,2032,2027,1745226520148394022
10655256,2076,1997,2005,1980,1745226520148394022
10656256,2040,1953,1977,1936,1745226520148394022
10657256,2008,1918,1950,1899,1745226520148394022
10658256,1979,1900,1929,1875,1745226520148394022
10659256,1960,1898,1915,1870,1745226520148394022
10660256,1952,1913,1914,1884,1745226520148394022
10661256,1958,1945,1930,1920,1745226520148394022
10662256,1986,1987,1957,1963,1745226520148394022
10663256,2018,2027,1993,2006,1745226520148394022
10664256,2057,2058,2026,2041,1745226520148394022
10665257,2099,2070,2054,2069,1745226520148394022
10666257,2129,2072,2077,2088,1745226520148394022
10667257,2152,2065,2096,2104,1745226520148394022
10668257,2170,2054,2109,2114,1745226520148394022
10669257,2185,2041,2118,2123,1745226520148394022
10670257,2196,2036,2123,2126,1745226520148394022
10671257,2206,2033,2123,2124,1745226520148394022
10672257,2210,2022,2116,2107,1745226520148394022
10673257,2203,1999,2101,2074,1745226520148394022
10674257,2178,1968,2077,2027,1745226520148394022
10675257,2139,1937,2043,1977,1745226520148394022
10676257,2094,1906,2008,1926,1745226520148394022
10677258,2058,1888,1977,1882,1745226520148394022
10678258,2010,1884,1950,1848,1745226520148394022
10679258,1979,1898,1935,1832,1745226520148394022
10680258,1962,1921,1933,1837,1745226520148394022
10681258,1965,1939,1946,1866,1745226520148394022
10682258,1987,1960,1972,1909,1745226520148394022
10683258,2021,1981,2003,1957,1745226520148394022
10684258,2064,2004,2034,2000,1745226520148394022
10685258,2098,2028,2061,2033,1745226520148394022
10686258,2126,2054,2082,2058,1745226520148394022
10687258,2145,2076,2096,2073,1745226520148394022
10688258,2156,2090,2104,2080,1745226520148394022
10689259,2161,2092,2109,2082,1745226520148394022
10690260,2163,2083,2109,2082,1745226520148394022
10691260,2173,2066,2107,2077,1745226520148394022
10692259,2172,2040,2097,2062,1745226520202768369
10693259,2171,2011,2078,2033,1745226520202768369
10694259,2158,1978,2052,1988,1745226520202768369
10695259,2130,1951,2018,1950,1745226520202768369
10696259,2089,1932,1988,1910,1745226520202768369
10697259,2042,1913,1960,1882,1745226520202768369
10698259,2000,1893,1941,1865,1745226520202768369
10699259,1963,1878,1931,1865,1745226520202768369
10700259,1938,1878,1932,1883,1745226520202768369
10701260,1932,1887,1948,1915,1745226520202768369
10702260,1949,1902,1972,1953,1745226520202768369
10703260,1984,1924,2000,1986,1745226520202768369
10704260,2029,1949,2025,2013,1745226520202768369
10705261,2076,1965,2044,2030,1745226520202768369
10706260,2113,1979,2061,2042,1745226520202768369
10707260,2138,1988,2072,2051,1745226520202768369
10708260,2150,1997,2077,2058,1745226520202768369
10709260,2151,2013,2083,2067,1745226520202768369
10710260,2145,2033,2086,2074,1745226520202768369
10711260,2124,2048,2084,2073,1745226520202768369
10712260,2133,2050,2059,2061,1745226520202768369
10713261,2118,2043,2058,2030,1745226520202768369
10714261,2099,2022,2029,1988,1745226520202768369
10715261,2068,1993,1997,1938,1745226520202768369
10716261,2028,1966,1966,1893,1745226520202768369
10717261,1987,1945,1938,1859,1745226520202768369
10718261,1948,1933,1917,1836,1745226520202768369
10719261,1915,1937,1909,1834,1745226520202768369
10720261,1906,1949,1915,1851,1745226520202768369
10721261,1885,1974,1936,1890,1745226520202768369
10722261,1894,2007,1966,1937,1745226520202768369
10723261,1918,2043,1997,1986,1745226520202768369
10724261,1949,2072,2024,2027,1745226520202768369
10725262,1986,2090,2044,2059,1745226520202768369
10726262,2016,2106,2060,2081,1745226520202768369
10727262,2049,2115,2070,2095,1745226520202768369
10728262,2060,2112,2076,2098,1745226520202768369
10729262,2080,2100,2076,2099,1745226520202768369
10730262,2100,2082,2073,2100,1745226520202768369
10731262,2117,2066,2069,2099,1745226520202768369
10732262,2126,2056,2064,2093,1745226520202768369
10733262,2123,2040,2052,2071,1745226520202768369
10734262,2102,2017,2031,2037,1745226520202768369
10735262,2068,1981,2005,1997,1745226520202768369
10736262,2026,1943,1976,1958,1745226520202768369
10737263,1987,1907,1948,1926,1745226520202768369
10738263,1955,1881,1930,1906,1745226520202768369
10739263,1931,1869,1918,1903,1745226520202768369
10740263,1922,1872,1920,1923,1745226520202768369
10741263,1925,1886,1937,1961,1745226520202768369
10742263,1938,1907,1965,2008,1745226520202768369
10743263,1964,1931,1997,2059,1745226520202768369
10744263,1994,1951,2029,2101,1745226520202768369
10745263,2025,1970,2058,2136,1745226520202768369
10746263,2051,1992,2080,2161,1745226520202768369
10747263,2073,2008,2093,2176,1745226520202768369
10748263,2097,2014,2097,2182,1745226520202768369
10749264,2121,2018,2096,2181,1745226520202768369
10750264,2137,2024,2091,2172,1745226520263219171
10751264,2147,2040,2081,2157,1745226520263219171
10752264,2150,2065,2068,2132,1745226520263219171
10753264,2146,2083,2044,2092,1745226520263219171
10754264,2130,2094,2017,2042,1745226520263219171
10755264,2102,2103,1987,1994,1745226520263219171
10756264,2066,2109,1960,1956,1745226520263219171
10757264,2026,2112,1937,1931,1745226520263219171
10758264,1989,2113,1920,1918,1745226520263219171
10759264,1964,2107,1907,1920,1745226520263219171
10760264,1952,2109,1907,1940,1745226520263219171
10761265,1954,2125,1920,1978,1745226520263219171
10762265,1973,2144,1945,2025,1745226520263219171
10763265,2006,2169,1973,2069,1745226520263219171
10764266,2043,2182,2000,2107,1745226520263219171
10765265,2078,2194,2022,2136,1745226520263219171
10766265,2100,2201,2043,2152,1745226520263219171
10767265,2105,2208,2053,2166,1745226520263219171
10768265,2114,2216,2060,2176,1745226520263219171
10769265,2116,2221,2065,2184,1745226520263219171
10770265,2117,2224,2068,2190,1745226520263219171
10771265,2116,2223,2067,2192,1745226520263219171
10772265,2113,2221,2065,2179,1745226520263219171
10773266,2104,2204,2052,2146,1745226520263219171
10774266,2085,2165,2030,2098,1745226520263219171
10775266,2063,2114,2004,2043,1745226520263219171
10776266,2034,2065,1977,1995,1745226520263219171
10777266,2008,2022,1955,1962,1745226520263219171
10778266,1981,1994,1940,1940,1745226520263219171
10779266,1958,1981,1935,1940,1745226520263219171
10780266,1942,1992,1946,1960,1745226520263219171
10781266,1947,2019,1973,1998,1745226520263219171
10782266,1976,2056,2014,2053,1745226520263219171
10783266,2020,2086,2064,2106,1745226520263219171
10784266,2066,2117,2106,2148,1745226520263219171
10785267,2108,2145,2136,2170,1745226520263219171
10786267,2147,2158,2162,2172,1745226520263219171
10787267,2185,2156,2152,2164,1745226520263219171
10788267,2214,2145,2141,2153,1745226520263219171
10789267,2231,2133,2123,2154,1745226520263219171
10790267,2227,2128,2107,2161,1745226520263219171
10791267,2204,2127,2092,2164,1745226520263219171
10792267,2172,2127,2080,2154,1745226520263219171
10793267,2139,2116,2067,2127,1745226520263219171
10794267,2107,2092,2054,2089,1745226520263219171
10795267,2076,2058,2036,2052,1745226520263219171
10796267,2038,2030,2017,2028,1745226520263219171
10797268,1998,2018,2000,2022,1745226520263219171
10798268,1960,2017,1994,2033,1745226520263219171
10799268,1932,2025,2003,2059,1745226520263219171
10800268,1915,2041,2021,2090,1745226520263219171
10801268,1917,2068,2044,2120,1745226520263219171
10802268,1946,2097,2066,2140,1745226520263219171
10803268,1988,2125,2081,2148,1745226520263219171
10804268,2027,2150,2086,2147,1745226520263219171
10805268,2043,2173,2084,2132,1745226520263219171
10806268,2037,2191,2085,2101,1745226520263219171
10807268,2019,2200,2098,2069,1745226520263219171
10808268,2011,2198,2125,2048,1745226520321797438
10809269,2026,2192,2163,2034,1745226520321797438
10810269,2075,2182,2203,2028,1745226520321797438
10811269,2145,2169,2234,2022,1745226520321797438
10812269,2220,2146,2242,2014,1745226520321797438
10813269,2267,2112,2219,2010,1745226520321797438
10814269,2261,2074,2171,2019,1745226520321797438
10815269,2193,2043,2107,2043,1745226520321797438
10816269,2083,2026,2037,2074,1745226520321797438
10817269,1966,2019,1976,2104,1745226520321797438
10818269,1870,2015,1934,2116,1745226520321797438
10819269,1805,2013,1891,2114,1745226520321797438
10820269,1769,2020,1881,2104,1745226520321797438
10821270,1778,2042,1892,2098,1745226520321797438
10822270,1814,2078,1926,2070,1745226520321797438
10823270,1875,2133,1971,2030,1745226520321797438
10824270,1946,2156,2021,1990,1745226520321797438
10825270,2012,2185,2069,1944,1745226520321797438
10826270,2062,2216,2099,1917,1745226520321797438
10827270,2082,2221,2119,1901,1745226520321797438
10828270,2067,2233,2126,1926,1745226520321797438
10829270,2017,2239,2115,1962,1745226520321797438
10830270,1944,2240,2091,2001,1745226520321797438
10831270,1866,2232,2060,2038,1745226520321797438
10832270,1804,2218,2050,2072,1745226520321797438
10833271,1764,2195,2034,2084,1745226520321797438
10834271,1738,2164,2019,2077,1745226520321797438
10835271,1721,2138,2002,2057,1745226520321797438
10836271,1704,2125,1980,2028,1745226520321797438
10837271,1685,2118,1956,2008,1745226520321797438
10838271,1666,2117,1937,1996,1745226520321797438
10839271,1653,2123,1930,2005,1745226520321797438
10840271,1653,2125,1939,2035,1745226520321797438
10841271,1673,2116,1962,2081,1745226520321797438
10842271,1715,2105,1995,2126,1745226520321797438
10843271,1773,2099,2030,2164,1745226520321797438
10844271,1835,2097,2064,2188,1745226520321797438
10845272,1897,2100,2089,2195,1745226520321797438
10846272,1946,2109,2105,2187,1745226520321797438
10847272,1981,2121,2113,2169,1745226520321797438
10848272,1995,2138,2113,2147,1745226520321797438
10849272,1997,2152,2109,2125,1745226520321797438
10850272,1994,2162,2110,2106,1745226520321797438
10851272,1989,2162,2110,2088,1745226520321797438
10852272,1988,2146,2108,2064,1745226520321797438
10853272,1990,2113,2100,2026,1745226520321797438
10854272,1989,2071,2088,1981,1745226520321797438
10855272,1984,2027,2068,1937,1745226520321797438
10856272,1970,1992,2044,1899,1745226520321797438
10857273,1951,1969,2025,1870,1745226520321797438
10858273,1932,1961,2011,1856,1745226520321797438
10859273,1910,1969,2009,1859,1745226520321797438
10860273,1893,1992,2020,1890,1745226520321797438
10861273,1888,2025,2039,1947,1745226520321797438
10862273,1898,2069,2069,2010,1745226520321797438
10863273,1918,2106,2089,2065,1745226520321797438
10864273,1950,2128,2107,2104,1745226520321797438
10865273,1990,2128,2117,2127,1745226520321797438
10866273,2032,2115,2126,2136,1745226520379144727
10867273,2074,2092,2127,2136,1745226520379144727
10868273,2113,2069,2124,2128,1745226520379144727
10869274,2144,2054,2121,2114,1745226520379144727
10870274,2163,2052,2117,2095,1745226520379144727
10871274,2172,2058,2117,2070,1745226520379144727
10872274,2171,2067,2115,2039,1745226520379144727
10873274,2163,2069,2109,2001,1745226520379144727
10874274,2149,2059,2098,1955,1745226520379144727
10875274,2131,2036,2080,1908,1745226520379144727
10876274,2108,2011,2059,1866,1745226520379144727
10877274,2087,1984,2041,1835,1745226520379144727
10878274,2072,1957,2030,1818,1745226520379144727
10879274,2062,1945,2028,1814,1745226520379144727
10880274,2062,1950,2036,1828,1745226520379144727
10881275,2074,1974,2061,1854,1745226520379144727
10882275,2104,2011,2091,1884,1745226520379144727
10883275,2148,2045,2129,1921,1745226520379144727
10884275,2198,2065,2163,1961,1745226520379144727
10885275,2236,2075,2188,2005,1745226520379144727
10886275,2252,2085,2190,2062,1745226520379144727
10887275,2252,2094,2181,2123,1745226520379144727
10888275,2227,2100,2165,2176,1745226520379144727
10889275,2197,2096,2152,2219,1745226520379144727
10890275,2166,2082,2126,2246,1745226520379144727
10891275,2139,2058,2104,2255,1745226520379144727
10892275,2091,2037,2080,2243,1745226520379144727
10893276,2051,2009,2052,2204,1745226520379144727
10894276,2009,1977,2021,2139,1745226520379144727
10895276,1967,1950,1993,2057,1745226520379144727
10896276,1928,1922,1966,1968,1745226520379144727
10897276,1893,1897,1942,1893,1745226520379144727
10898276,1861,1885,1925,1838,1745226520379144727
10899276,1837,1893,1918,1819,1745226520379144727
10900276,1825,1924,1928,1842,1745226520379144727
10901276,1828,1971,1953,1903,1745226520379144727
10902276,1852,2028,1989,1986,1745226520379144727
10903276,1896,2083,2026,2074,1745226520379144727
10904276,1952,2126,2060,2147,1745226520379144727
10905277,2012,2157,2087,2200,1745226520379144727
10906277,2070,2179,2107,2229,1745226520379144727
10907277,2122,2181,2118,2237,1745226520379144727
10908277,2166,2169,2125,2220,1745226520379144727
10909277,2195,2156,2123,2189,1745226520379144727
10910277,2204,2156,2117,2147,1745226520379144727
10911277,2202,2160,2112,2104,1745226520379144727
10912277,2194,2162,2106,2057,1745226520379144727
10913277,2181,2157,2097,2004,1745226520379144727
10914277,2162,2139,2081,1954,1745226520379144727
10915277,2134,2110,2059,1912,1745226520379144727
10916277,2100,2081,2035,1880,1745226520379144727
10917278,2061,2060,2014,1866,1745226520379144727
10918278,2014,2050,1997,1857,1745226520379144727
10919278,1972,2042,1985,1866,1745226520379144727
10920278,1946,2040,1979,1892,1745226520379144727
10921278,1941,2051,1986,1937,1745226520379144727
10922278,1960,2070,2006,1992,1745226520379144727
10923278,1994,2088,2032,2056,1745226520379144727
10924278,2040,2095,2061,2118,1745226520436538317
10925278,2089,2094,2084,2174,1745226520436538317
10926278,2129,2092,2105,2218,1745226520436538317
10927278,2160,2097,2122,2248,1745226520436538317
10928278,2176,2107,2137,2259,1745226520436538317
10929279,2182,2122,2147,2252,1745226520436538317
10930279,2192,2130,2156,2229,1745226520436538317
10931279,2208,2133,2164,2198,1745226520436538317
10932279,2231,2118,2165,2156,1745226520436538317
10933279,2255,2077,2156,2108,1745226520436538317
10934279,2270,2020,2144,2062,1745226520436538317
10935279,2269,1965,2124,2024,1745226520436538317
10936279,2250,1925,2099,2002,1745226520436538317
10937279,2219,1894,2071,1997,1745226520436538317
10938279,2178,1877,2042,2012,1745226520436538317
10939280,2125,1872,2017,2029,1745226520436538317
10940279,2076,1878,1998,2057,1745226520436538317
10941280,2035,1898,1997,2090,1745226520436538317
10942280,2010,1930,2010,2144,1745226520436538317
10943280,2010,1940,2026,2169,1745226520436538317
10944280,2028,1966,2050,2188,1745226520436538317
10945280,2064,1968,2067,2189,1745226520436538317
10946280,2099,1977,2083,2181,1745226520436538317
10947280,2129,1996,2095,2168,1745226520436538317
10948280,2153,2011,2102,2145,1745226520436538317
10949280,2174,2018,2107,2125,1745226520436538317
10950280,2187,2024,2108,2114,1745226520436538317
10951280,2192,2034,2108,2101,1745226520436538317
10952280,2185,2051,2107,2083,1745226520436538317
10953281,2165,2060,2099,2053,1745226520436538317
10954281,2138,2065,2086,2012,1745226520436538317
10955281,2104,2067,2068,1966,1745226520436538317
10956281,2068,2067,2048,1922,1745226520436538317
10957281,2033,2065,2022,1888,1745226520436538317
10958281,2000,2060,2004,1868,1745226520436538317
10959281,1970,2053,1994,1868,1745226520436538317
10960281,1948,2049,1995,1893,1745226520436538317
10961281,1939,2052,2010,1941,1745226520436538317
10962281,1952,2064,2037,2006,1745226520436538317
10963281,1980,2077,2072,2075,1745226520436538317
10964281,2017,2093,2104,2131,1745226520436538317
10965282,2058,2107,2129,2170,1745226520436538317
10966282,2090,2120,2147,2194,1745226520436538317
10967282,2116,2129,2160,2193,1745226520436538317
10968282,2132,2139,2169,2180,1745226520436538317
10969282,2147,2142,2177,2158,1745226520436538317
10970282,2157,2131,2182,2130,1745226520436538317
10971282,2166,2108,2184,2099,1745226520436538317
10972282,2173,2083,2182,2069,1745226520436538317
10973282,2171,2058,2173,2035,1745226520436538317
10974282,2149,2034,2154,2012,1745226520436538317
10975282,2114,2017,2129,2003,1745226520436538317
10976282,2074,2004,2104,2015,1745226520436538317
10977283,2035,1996,2075,2042,1745226520436538317
10978283,2008,1976,2053,2075,1745226520436538317
10979283,1996,1948,2040,2108,1745226520436538317
10980283,1993,1924,2041,2144,1745226520436538317
10981283,1999,1922,2058,2182,1745226520436538317
10982283,2013,1940,2083,2213,1745226520496730892
10983283,2031,1977,2110,2226,1745226520496730892
10984283,2048,2022,2130,2216,1745226520496730892
10985283,2065,2062,2138,2187,1745226520496730892
10986283,2081,2090,2138,2155,1745226520496730892
10987283,2091,2109,2142,2132,1745226520496730892
10988283,2087,2117,2145,2118,1745226520496730892
10989284,2081,2113,2143,2109,1745226520496730892
10990284,2081,2102,2141,2097,1745226520496730892
10991284,2079,2092,2140,2081,1745226520496730892
10992284,2069,2083,2137,2060,1745226520496730892
10993284,2052,2064,2129,2030,1745226520496730892
10994284,2029,2029,2116,1997,1745226520496730892
10995284,2005,1992,2097,1961,1745226520496730892
10996284,1968,1965,2080,1924,1745226520496730892
10997284,1931,1939,2059,1891,1745226520496730892
10998284,1909,1909,2038,1869,1745226520496730892
10999284,1904,1886,2026,1865,1745226520496730892
11000285,1912,1887,2021,1876,1745226520496730892
11001285,1930,1883,2030,1907,1745226520496730892
11002285,1957,1907,2051,1945,1745226520496730892
11003285,1989,1940,2074,1982,1745226520496730892
11004285,2024,1979,2096,2014,1745226520496730892
11005285,2060,2026,2115,2042,1745226520496730892
11006285,2085,2078,2131,2070,1745226520496730892
11007285,2110,2129,2140,2091,1745226520496730892
11008285,2121,2179,2148,2108,1745226520496730892
11009285,2118,2227,2154,2124,1745226520496730892
11010285,2106,2264,2160,2138,1745226520496730892
11011285,2096,2282,2161,2146,1745226520496730892
11012285,2089,2288,2160,2146,1745226520496730892
11013286,2077,2285,2153,2133,1745226520496730892
11014286,2064,2270,2139,2108,1745226520496730892
11015286,2049,2242,2125,2077,1745226520496730892
11016286,2030,2203,2109,2041,1745226520496730892
11017286,2012,2163,2094,2009,1745226520496730892
11018286,1999,2132,2084,1980,1745226520496730892
11019286,1994,2114,2084,1973,1745226520496730892
11020286,1997,2114,2094,1987,1745226520496730892
11021286,2008,2131,2110,2022,1745226520496730892
11022286,2038,2154,2129,2073,1745226520496730892
11023286,2076,2172,2147,2122,1745226520496730892
11024286,2115,2178,2164,2159,1745226520496730892
11025287,2143,2181,2173,2176,1745226520496730892
11026287,2150,2182,2176,2172,1745226520496730892
11027287,2147,2188,2170,2153,1745226520496730892
11028288,2138,2197,2164,2126,1745226520496730892
11029289,2134,2209,2156,2097,1745226520496730892
11030287,2126,2220,2145,2072,1745226520496730892
11031287,2110,2224,2129,2053,1745226520496730892
11032287,2086,2209,2107,2036,1745226520496730892
11033287,2053,2176,2083,2024,1745226520496730892
11034287,2020,2130,2061,2013,1745226520496730892
11035287,1987,2089,2040,2007,1745226520496730892
11036287,1958,2054,2024,2002,1745226520496730892
11037288,1934,2024,2011,1996,1745226520496730892
11038288,1914,2004,2006,1992,1745226520496730892
11039288,1899,1995,2005,1992,1745226520496730892
11040288,1892,1995,2015,1999,1745226520556362274
11041288,1895,2006,2029,2017,1745226520556362274
11042288,1904,2033,2052,2042,1745226520556362274
11043288,1926,2067,2074,2069,1745226520556362274
11044288,1959,2086,2094,2091,1745226520556362274
11045288,1996,2093,2112,2109,1745226520556362274
11046288,2029,2082,2128,2128,1745226520556362274
11047288,2053,2080,2143,2145,1745226520556362274
11048288,2069,2081,2156,2160,1745226520556362274
11049289,2082,2081,2166,2171,1745226520556362274
11050289,2099,2077,2170,2176,1745226520556362274
11051289,2114,2069,2171,2172,1745226520556362274
11052289,2124,2059,2169,2158,1745226520556362274
11053289,2121,2050,2156,2132,1745226520556362274
11054289,2104,2038,2133,2090,1745226520556362274
11055289,2078,2027,2105,2041,1745226520556362274
11056291,2049,2020,2073,2006,1745226520556362274
11057289,2015,2017,2043,1956,1745226520556362274
11058291,1985,2028,2022,1933,1745226520556362274
11059289,1961,2048,2014,1934,1745226520556362274
11060290,1963,2073,2020,1965,1745226520556362274
11061290,1937,2105,2028,2017,1745226520556362274
11062290,1989,2140,2061,2083,1745226520556362274
11063290,2038,2165,2099,2147,1745226520556362274
11064290,2100,2180,2139,2203,1745226520556362274
11065290,2161,2187,2176,2244,1745226520556362274
11066290,2212,2190,2193,2268,1745226520556362274
11067290,2243,2198,2216,2280,1745226520556362274
11068290,2249,2202,2216,2276,1745226520556362274
11069290,2232,2210,2202,2265,1745226520556362274
11070290,2196,2220,2182,2252,1745226520556362274
11071290,2153,2229,2162,2238,1745226520556362274
11072290,2105,2244,2140,2210,1745226520556362274
11073291,2052,2257,2115,2154,1745226520556362274
11074291,1998,2254,2083,2081,1745226520556362274
11075291,1949,2229,2048,2004,1745226520556362274
11076291,1908,2192,2010,1942,1745226520556362274
11077291,1873,2149,1981,1904,1745226520556362274
11078291,1845,2110,1962,1886,1745226520556362274
11079291,1825,2077,1950,1892,1745226520556362274
11080291,1817,2059,1953,1921,1745226520556362274
11081291,1822,2059,1969,1966,1745226520556362274
11082291,1846,2066,1994,2019,1745226520556362274
11083291,1885,2069,2019,2077,1745226520556362274
11084291,1933,2074,2041,2115,1745226520556362274
11085292,1980,2065,2059,2146,1745226520556362274
11086292,2018,2060,2070,2168,1745226520556362274
11087292,2048,2058,2078,2181,1745226520556362274
11088292,2069,2073,2085,2186,1745226520556362274
11089292,2086,2094,2089,2188,1745226520556362274
11090292,2099,2114,2093,2187,1745226520556362274
11091292,2106,2133,2098,2185,1745226520556362274
11092292,2108,2145,2101,2180,1745226520556362274
11093292,2103,2152,2098,2166,1745226520556362274
11094292,2090,2156,2089,2138,1745226520556362274
11095292,2067,2158,2070,2097,1745226520556362274
11096292,2056,2145,2048,2051,1745226520556362274
11097293,2027,2128,2022,2010,1745226520556362274
11098293,2012,2109,2004,1985,1745226520621370014
11099293,1998,2098,1995,1979,1745226520621370014
11100293,1988,2096,1994,1995,1745226520621370014
11101293,1987,2109,2004,2030,1745226520621370014
11102293,1992,2132,2024,2089,1745226520621370014
11103293,2001,2162,2050,2154,1745226520621370014
11104293,2022,2188,2072,2206,1745226520621370014
11105293,2054,2202,2090,2237,1745226520621370014
11106293,2088,2204,2106,2245,1745226520621370014
11107293,2119,2197,2123,2236,1745226520621370014
11108293,2142,2185,2139,2221,1745226520621370014
11109294,2155,2180,2154,2202,1745226520621370014
11110294,2157,2181,2171,2180,1745226520621370014
11111294,2161,2186,2191,2153,1745226520621370014
11112294,2170,2192,2209,2117,1745226520621370014
11113294,2181,2195,2212,2070,1745226520621370014
11114295,2194,2165,2195,2012,1745226520621370014
11115295,2204,2115,2164,1961,1745226520621370014
11116294,2207,2064,2131,1921,1745226520621370014
11117294,2198,2028,2099,1901,1745226520621370014
11118295,2171,2008,2061,1902,1745226520621370014
11119294,2134,1994,2019,1931,1745226520621370014
11120294,2096,2001,1988,1971,1745226520621370014
11121295,2062,1990,1977,2021,1745226520621370014
11122295,2030,1998,1979,2074,1745226520621370014
11123295,2005,2005,1984,2125,1745226520621370014
11124295,1984,2011,1981,2178,1745226520621370014
11125295,1965,2021,1978,2239,1745226520621370014
11126295,1948,2025,1972,2259,1745226520621370014
11127295,1934,2025,1971,2288,1745226520621370014
11128295,1924,2025,1974,2305,1745226520621370014
11129295,1918,2030,1985,2316,1745226520621370014
11130295,1920,2040,1997,2317,1745226520621370014
11131295,1927,2043,2010,2302,1745226520621370014
11132295,1940,2035,2014,2262,1745226520621370014
11133296,1947,2021,2011,2194,1745226520621370014
11134296,1938,2014,2004,2108,1745226520621370014
11135296,1917,2020,2008,2014,1745226520621370014
11136296,1904,2039,2029,1925,1745226520621370014
11137296,1924,2050,2063,1841,1745226520621370014
11138296,1979,2034,2100,1767,1745226520621370014
11139296,2068,2013,2134,1710,1745226520621370014
11140296,2164,1996,2163,1682,1745226520621370014
11141296,2242,1996,2176,1701,1745226520621370014
11142296,2274,2011,2158,1766,1745226520621370014
11143296,2269,2032,2121,1854,1745226520621370014
11144296,2254,2050,2084,1956,1745226520621370014
11145297,2250,2054,2064,2064,1745226520621370014
11146297,2248,2055,2052,2174,1745226520621370014
11147297,2232,2061,2029,2282,1745226520621370014
11148297,2193,2075,1997,2368,1745226520621370014
11149297,2145,2088,1963,2410,1745226520621370014
11150297,2093,2095,1933,2410,1745226520621370014
11151297,2034,2101,1907,2365,1745226520621370014
11152297,1974,2104,1886,2284,1745226520621370014
11153297,1932,2094,1880,2177,1745226520621370014
11154297,1914,2075,1890,2068,1745226520621370014
11155297,1930,2048,1914,1971,1745226520621370014
11156297,1970,2017,1948,1890,1745226520670054934
11157298,2031,1990,1989,1835,1745226520670054934
11158298,2100,1968,2026,1794,1745226520670054934
11159298,2147,1955,2042,1788,1745226520670054934
11160298,2160,1955,2036,1820,1745226520670054934
11161298,2139,1968,2004,1893,1745226520670054934
11162298,2097,1990,1954,1996,1745226520670054934
11163298,2051,2012,1909,2108,1745226520670054934
11164298,2020,2032,1875,2208,1745226520670054934
11165298,2012,2048,1861,2280,1745226520670054934
11166298,2021,2065,1870,2323,1745226520670054934
11167298,2040,2085,1891,2334,1745226520670054934
11168298,2048,2113,1909,2322,1745226520670054934
11169299,2036,2130,1925,2298,1745226520670054934
11170299,2020,2130,1929,2276,1745226520670054934
11171299,2012,2122,1939,2270,1745226520670054934
11172299,2004,2108,1937,2272,1745226520670054934
11173299,1995,2085,1920,2254,1745226520670054934
11174299,1982,2052,1889,2206,1745226520670054934
11175299,1964,2005,1857,2133,1745226520670054934
11176299,1939,1968,1837,2056,1745226520670054934
11177299,1915,1947,1824,1984,1745226520670054934
11178299,1896,1942,1815,1915,1745226520670054934
11179299,1888,1946,1812,1861,1745226520670054934
11180299,1900,1953,1821,1834,1745226520670054934
11181300,1920,1969,1841,1840,1745226520670054934
11182300,1955,1990,1866,1870,1745226520670054934
11183300,1994,2020,1893,1906,1745226520670054934
11184300,2030,2054,1921,1937,1745226520670054934
11185300,2064,2109,1945,1957,1745226520670054934
11186300,2091,2121,1966,1984,1745226520670054934
11187300,2120,2130,1985,1996,1745226520670054934
11188300,2147,2122,1997,1997,1745226520670054934
11189300,2170,2104,2004,1992,1745226520670054934
11190300,2186,2085,2004,2009,1745226520670054934
11191300,2202,2066,2014,1979,1745226520670054934
11192300,2222,2040,2025,1970,1745226520670054934
11193301,2246,2006,2042,1954,1745226520670054934
11194301,2269,1969,2061,1929,1745226520670054934
11195301,2286,1933,2073,1890,1745226520670054934
11196301,2298,1906,2086,1842,1745226520670054934
11197301,2304,1889,2104,1789,1745226520670054934
11198301,2301,1884,2115,1742,1745226520670054934
11199301,2287,1888,2123,1715,1745226520670054934
11200301,2273,1898,2130,1726,1745226520670054934
11201301,2280,1916,2133,1778,1745226520670054934
11202301,2303,1941,2136,1857,1745226520670054934
11203301,2322,1974,2126,1938,1745226520670054934
11204301,2322,2008,2114,2004,1745226520670054934
11205302,2298,2041,2093,2053,1745226520670054934
11206302,2241,2067,2068,2074,1745226520670054934
11207302,2174,2078,2048,2077,1745226520670054934
11208302,2121,2081,2032,2076,1745226520670054934
11209302,2086,2078,2027,2074,1745226520670054934
11210302,2065,2076,2018,2064,1745226520670054934
11211302,2054,2074,2006,2052,1745226520670054934
11212302,2049,2067,1998,2040,1745226520670054934
11213302,2044,2051,2000,2034,1745226520670054934
11214302,2043,2026,2003,2027,1745226520735440534
11215302,2043,1998,2009,2017,1745226520735440534
11216302,2050,1972,2014,2001,1745226520735440534
11217303,2060,1949,2021,1981,1745226520735440534
11218303,2067,1933,2016,1960,1745226520735440534
11219303,2056,1928,1997,1936,1745226520735440534
11220303,2035,1932,1984,1923,1745226520735440534
11221303,2026,1955,1989,1938,1745226520735440534
11222303,2025,1989,1999,1982,1745226520735440534
11223303,2022,2026,1994,2036,1745226520735440534
11224303,2013,2069,1978,2082,1745226520735440534
11225303,2005,2108,1966,2106,1745226520735440534
11226303,2006,2136,1963,2108,1745226520735440534
11227303,2014,2148,1969,2091,1745226520735440534
11228303,2027,2149,1980,2064,1745226520735440534
11229304,2040,2140,1997,2029,1745226520735440534
11230304,2052,2125,2021,2000,1745226520735440534
11231304,2070,2105,2059,1979,1745226520735440534
11232304,2110,2081,2108,1962,1745226520735440534
11233304,2166,2050,2158,1949,1745226520735440534
11234304,2233,2012,2183,1935,1745226520735440534
11235304,2254,1976,2182,1920,1745226520735440534
11236304,2256,1947,2138,1901,1745226520735440534
11237304,2213,1928,2068,1890,1745226520735440534
11238304,2132,1917,1980,1897,1745226520735440534
11239304,2030,1917,1895,1928,1745226520735440534
11240304,1942,1930,1856,1988,1745226520735440534
11241305,1881,1954,1845,2066,1745226520735440534
11242305,1850,1987,1864,2148,1745226520735440534
11243305,1848,2023,1896,2206,1745226520735440534
11244305,1861,2058,1927,2237,1745226520735440534
11245305,1871,2088,1947,2246,1745226520735440534
11246305,1872,2122,1963,2241,1745226520735440534
11247305,1876,2153,1978,2229,1745226520735440534
11248305,1885,2168,1993,2216,1745226520735440534
11249305,1898,2179,2003,2202,1745226520735440534
11250305,1918,2198,2011,2187,1745226520735440534
11251305,1950,2205,2016,2167,1745226520735440534
11252305,1988,2187,2018,2138,1745226520735440534
11253306,2019,2149,2012,2099,1745226520735440534
11254306,2039,2092,1998,2051,1745226520735440534
11255306,2051,2027,1978,2002,1745226520735440534
11256306,2053,1972,1953,1963,1745226520735440534
11257306,2056,1925,1926,1936,1745226520735440534
11258306,2064,1880,1899,1922,1745226520735440534
11259306,2070,1867,1880,1920,1745226520735440534
11260306,2067,1872,1872,1934,1745226520735440534
11261306,2061,1891,1881,1970,1745226520735440534
11262306,2066,1916,1915,2033,1745226520735440534
11263306,2093,1934,1978,2114,1745226520735440534
11264306,2145,1936,2068,2193,1745226520735440534
11265307,2220,1924,2164,2253,1745226520735440534
11266307,2309,1910,2255,2282,1745226520735440534
11267307,2393,1911,2325,2276,1745226520735440534
11268307,2450,1933,2364,2240,1745226520735440534
11269307,2451,1976,2353,2178,1745226520735440534
11270307,2380,2018,2289,2105,1745226520735440534
11271307,2265,2052,2209,2037,1745226520735440534
11272307,2150,2071,2139,1979,1745226520792191006
11273307,2058,2075,2082,1924,1745226520792191006
11274307,1985,2061,2031,1871,1745226520792191006
11275307,1932,2035,1986,1822,1745226520792191006
11276307,1889,2012,1950,1780,1745226520792191006
11277308,1852,1998,1923,1746,1745226520792191006
11278308,1821,1987,1904,1720,1745226520792191006
11279308,1800,1980,1897,1713,1745226520792191006
11280308,1792,1981,1905,1736,1745226520792191006
11281308,1809,1993,1930,1785,1745226520792191006
11282308,1848,2013,1971,1844,1745226520792191006
11283308,1902,2034,2019,1916,1745226520792191006
11284308,1966,2052,2073,1986,1745226520792191006
11285308,2030,2060,2118,2043,1745226520792191006
11286308,2094,2062,2159,2084,1745226520792191006
11287308,2149,2060,2192,2106,1745226520792191006
11288308,2196,2051,2217,2116,1745226520792191006
11289309,2233,2037,2231,2123,1745226520792191006
11290309,2256,2021,2230,2136,1745226520792191006
11291309,2257,2001,2221,2158,1745226520792191006
11292309,2246,1979,2199,2177,1745226520792191006
11293309,2226,1958,2171,2184,1745226520792191006
11294309,2196,1940,2140,2170,1745226520792191006
11295309,2155,1930,2106,2134,1745226520792191006
11296309,2103,1928,2074,2081,1745226520792191006
11297309,2037,1934,2051,2012,1745226520792191006
11298309,1976,1943,2040,1950,1745226520792191006
11299309,1928,1961,2048,1875,1745226520792191006
11300309,1914,1960,2068,1841,1745226520792191006
11301310,1933,1981,2100,1838,1745226520792191006
11302310,1981,2016,2139,1864,1745226520792191006
11303310,2034,2058,2174,1901,1745226520792191006
11304310,2073,2089,2197,1946,1745226520792191006
11305310,2102,2102,2204,1988,1745226520792191006
11306310,2108,2102,2204,2019,1745226520792191006
11307310,2129,2099,2208,2036,1745226520792191006
11308310,2157,2088,2218,2041,1745226520792191006
11309310,2185,2075,2229,2052,1745226520792191006
11310310,2201,2065,2232,2066,1745226520792191006
11311310,2203,2060,2224,2089,1745226520792191006
11312310,2186,2058,2197,2108,1745226520792191006
11313311,2148,2051,2150,2113,1745226520792191006
11314311,2096,2032,2094,2096,1745226520792191006
11315311,2036,2000,2039,2068,1745226520792191006
11316311,1985,1964,2002,2034,1745226520792191006
11317311,1945,1939,1990,2016,1745226520792191006
11318311,1921,1926,2005,2012,1745226520792191006
11319311,1925,1930,2042,2024,1745226520792191006
11320311,1964,1945,2100,2060,1745226520792191006
11321311,2040,1966,2161,2120,1745226520792191006
11322311,2139,1995,2213,2190,1745226520792191006
11323311,2226,2025,2240,2253,1745226520792191006
11324311,2285,2043,2243,2298,1745226520792191006
11325312,2306,2058,2222,2316,1745226520792191006
11326312,2289,2072,2189,2300,1745226520792191006
11327312,2240,2082,2144,2249,1745226520792191006
11328312,2170,2077,2095,2180,1745226520792191006
11329312,2100,2069,2053,2117,1745226520792191006
11330312,2036,2064,2021,2074,1745226520848001329
11331312,1980,2064,2002,2054,1745226520848001329
11332312,1934,2062,1988,2040,1745226520848001329
11333312,1898,2054,1977,2020,1745226520848001329
11334312,1868,2036,1961,1986,1745226520848001329
11335312,1837,2019,1942,1946,1745226520848001329
11336312,1806,2004,1923,1908,1745226520848001329
11337313,1778,1992,1903,1873,1745226520848001329
11338313,1753,1985,1888,1846,1745226520848001329
11339313,1734,1988,1881,1838,1745226520848001329
11340313,1725,2005,1888,1858,1745226520848001329
11341313,1731,2037,1909,1902,1745226520848001329
11342313,1754,2080,1946,1961,1745226520848001329
11343313,1792,2117,1987,2017,1745226520848001329
11344313,1845,2141,2028,2068,1745226520848001329
11345313,1908,2147,2067,2107,1745226520848001329
11346313,1974,2147,2100,2134,1745226520848001329
11347313,2037,2147,2126,2145,1745226520848001329
11348313,2094,2138,2145,2142,1745226520848001329
11349314,2141,2131,2155,2130,1745226520848001329
11350314,2166,2126,2154,2121,1745226520848001329
11351314,2164,2123,2146,2114,1745226520848001329
11352314,2150,2113,2140,2113,1745226520848001329
11353314,2148,2086,2148,2121,1745226520848001329
11354314,2167,2041,2168,2132,1745226520848001329
11355315,2201,1982,2188,2149,1745226520848001329
11356314,2237,1928,2181,2164,1745226520848001329
11357314,2264,1882,2194,2173,1745226520848001329
11358314,2265,1862,2163,2165,1745226520848001329
11359315,2219,1875,2098,2149,1745226520848001329
11360314,2123,1921,2017,2126,1745226520848001329
11361315,1995,1993,1942,2102,1745226520848001329
11362315,1880,2082,1891,2078,1745226520848001329
11363315,1803,2168,1866,2062,1745226520848001329
11364315,1764,2228,1865,2051,1745226520848001329
11365315,1754,2265,1878,2044,1745226520848001329
11366315,1768,2282,1900,2050,1745226520848001329
11367315,1792,2286,1925,2059,1745226520848001329
11368315,1820,2278,1950,2075,1745226520848001329
11369317,1858,2269,1974,2092,1745226520848001329
11370315,1894,2256,1996,2108,1745226520848001329
11371315,1930,2241,2003,2122,1745226520848001329
11372315,1957,2220,2026,2126,1745226520848001329
11373316,1979,2196,2033,2122,1745226520848001329
11374316,1990,2163,2033,2107,1745226520848001329
11375316,1993,2134,2030,2090,1745226520848001329
11376316,1994,2109,2028,2075,1745226520848001329
11377316,2004,2085,2027,2066,1745226520848001329
11378316,2019,2056,2027,2063,1745226520848001329
11379316,2030,2038,2029,2062,1745226520848001329
11380316,2033,2043,2033,2074,1745226520848001329
11381316,2024,2070,2041,2088,1745226520848001329
11382316,1998,2110,2051,2099,1745226520848001329
11383316,1964,2155,2063,2103,1745226520848001329
11384316,1940,2201,2069,2100,1745226520848001329
11385317,1939,2222,2074,2093,1745226520848001329
11386317,1956,2224,2074,2084,1745226520848001329
11387317,1984,2214,2076,2076,1745226520848001329
11388317,2012,2198,2075,2077,1745226520910686746
11389317,2039,2185,2076,2078,1745226520910686746
11390317,2062,2174,2077,2080,1745226520910686746
11391317,2082,2164,2081,2080,1745226520910686746
11392317,2099,2153,2082,2075,1745226520910686746
11393317,2102,2137,2076,2064,1745226520910686746
11394317,2089,2115,2060,2043,1745226520910686746
11395317,2061,2089,2034,2022,1745226520910686746
11396317,2025,2062,2010,2000,1745226520910686746
11397318,1988,2037,1988,1978,1745226520910686746
11398318,1957,2020,1974,1963,1745226520910686746
11399318,1934,2017,1968,1955,1745226520910686746
11400318,1921,2029,1971,1956,1745226520910686746
11401318,1924,2049,1982,1972,1745226520910686746
11402318,1945,2067,2000,2002,1745226520910686746
11403318,1977,2089,2022,2042,1745226520910686746
11404318,2016,2108,2049,2078,1745226520910686746
11405318,2058,2118,2073,2105,1745226520910686746
11406320,2096,2117,2090,2121,1745226520910686746
11407318,2127,2112,2106,2126,1745226520910686746
11408318,2146,2108,2109,2125,1745226520910686746
11409319,2152,2123,2108,2123,1745226520910686746
11410319,2152,2114,2105,2131,1745226520910686746
11411319,2152,2115,2097,2134,1745226520910686746
11412319,2160,2112,2085,2132,1745226520910686746
11413319,2149,2099,2068,2115,1745226520910686746
11414319,2140,2076,2042,2082,1745226520910686746
11415319,2125,2048,2017,2040,1745226520910686746
11416319,2110,2014,1996,2005,1745226520910686746
11417319,2097,1989,1981,1974,1745226520910686746
11418319,2084,1966,1972,1958,1745226520910686746
11419319,2083,1956,1971,1951,1745226520910686746
11420319,2083,1961,1978,1961,1745226520910686746
11421320,2079,1981,1989,1990,1745226520910686746
11422320,2068,2016,2005,2029,1745226520910686746
11423320,2054,2058,2024,2074,1745226520910686746
11424320,2041,2101,2048,2117,1745226520910686746
11425320,2035,2150,2069,2160,1745226520910686746
11426320,2039,2190,2085,2200,1745226520910686746
11427320,2059,2196,2096,2235,1745226520910686746
11428320,2092,2159,2105,2270,1745226520910686746
11429320,2140,2108,2116,2304,1745226520910686746
11430320,2194,2064,2130,2331,1745226520910686746
11431320,2243,2032,2148,2344,1745226520910686746
11432320,2279,2014,2168,2329,1745226520910686746
11433321,2296,2002,2180,2288,1745226520910686746
11434321,2284,1990,2174,2218,1745226520910686746
11435321,2245,1970,2145,2126,1745226520910686746
11436321,2189,1949,2101,2033,1745226520910686746
11437321,2124,1943,2049,1963,1745226520910686746
11438321,2050,1956,1986,1919,1745226520910686746
11439321,1969,1994,1931,1890,1745226520910686746
11440321,1892,2052,1893,1874,1745226520910686746
11441321,1829,2113,1881,1873,1745226520910686746
11442321,1793,2172,1893,1889,1745226520910686746
11443321,1785,2222,1920,1918,1745226520910686746
11444321,1802,2254,1949,1956,1745226520910686746
11445322,1842,2260,1976,1992,1745226520910686746
11446322,1894,2252,1997,2020,1745226520970974477
11447322,1948,2227,2016,2037,1745226520970974477
11448322,1996,2202,2032,2051,1745226520970974477
11449322,2035,2172,2051,2061,1745226520970974477
11450322,2077,2154,2071,2076,1745226520970974477
11451322,2120,2139,2090,2090,1745226520970974477
11452322,2165,2121,2102,2101,1745226520970974477
11453322,2205,2094,2100,2103,1745226520970974477
11454322,2226,2063,2082,2085,1745226520970974477
11455322,2219,2033,2049,2051,1745226520970974477
11456322,2182,2014,2006,2009,1745226520970974477
11457323,2124,2006,1965,1971,1745226520970974477
11458323,2069,2002,1928,1941,1745226520970974477
11459323,2020,2003,1898,1926,1745226520970974477
11460323,1980,2012,1877,1932,1745226520970974477
11461323,1954,2033,1875,1960,1745226520970974477
11462323,1952,2062,1896,1998,1745226520970974477
11463323,1976,2092,1934,2039,1745226520970974477
11464323,2018,2116,1976,2070,1745226520970974477
11465323,2065,2132,2012,2093,1745226520970974477
11466323,2102,2142,2034,2108,1745226520970974477
11467323,2122,2144,2043,2121,1745226520970974477
11468323,2122,2143,2035,2138,1745226520970974477
11469324,2096,2138,2018,2162,1745226520970974477
11470324,2085,2140,2000,2181,1745226520970974477
11471324,2074,2147,1988,2194,1745226520970974477
11472325,2069,2152,1982,2193,1745226520970974477
11473324,2060,2158,1970,2177,1745226520970974477
11474324,2058,2154,1965,2138,1745226520970974477
11475324,2019,2127,1929,2089,1745226520970974477
11476324,2009,2081,1900,2038,1745226520970974477
11477324,2002,2029,1873,1996,1745226520970974477
11478324,1996,1990,1853,1966,1745226520970974477
11479324,1989,1969,1841,1952,1745226520970974477
11480324,2000,1966,1841,1955,1745226520970974477
11481325,1989,1978,1853,1978,1745226520970974477
11482325,2008,2003,1878,2016,1745226520970974477
11483325,2036,2030,1909,2059,1745226520970974477
11484325,2077,2053,1942,2095,1745226520970974477
11485325,2120,2066,1972,2125,1745226520970974477
11486325,2156,2076,1996,2148,1745226520970974477
11487325,2190,2081,2018,2164,1745226520970974477
11488325,2213,2089,2032,2180,1745226520970974477
11489325,2226,2094,2040,2194,1745226520970974477
11490325,2226,2101,2042,2210,1745226520970974477
11491325,2217,2105,2041,2225,1745226520970974477
11492325,2204,2098,2040,2234,1745226520970974477
11493326,2189,2077,2033,2232,1745226520970974477
11494326,2166,2048,2022,2221,1745226520970974477
11495326,2146,2011,2005,2200,1745226520970974477
11496326,2129,1979,1988,2170,1745226520970974477
11497326,2118,1959,1979,2138,1745226520970974477
11498326,2120,1954,1979,2107,1745226520970974477
11499326,2125,1963,1981,2072,1745226520970974477
11500326,2127,1977,1983,2037,1745226520970974477
11501326,2126,1996,1987,2017,1745226520970974477
11502326,2125,2025,1996,2010,1745226520970974477
11503326,2125,2061,2006,2013,1745226520970974477
11504326,2128,2093,2016,2022,1745226521025624446
11505327,2134,2114,2022,2028,1745226521025624446
11506327,2140,2124,2025,2029,1745226521025624446
11507327,2136,2125,2021,2026,1745226521025624446
11508327,2117,2126,2012,2026,1745226521025624446
11509327,2095,2128,2006,2031,1745226521025624446
11510327,2080,2126,2002,2040,1745226521025624446
11511327,2065,2128,2000,2043,1745226521025624446
11512327,2049,2126,1996,2035,1745226521025624446
11513327,2032,2117,1988,2014,1745226521025624446
11514327,2014,2100,1974,1981,1745226521025624446
11515327,1997,2078,1956,1946,1745226521025624446
11516327,1976,2057,1936,1912,1745226521025624446
11517328,1953,2037,1918,1889,1745226521025624446
11518328,1934,2020,1904,1877,1745226521025624446
11519328,1916,2010,1897,1877,1745226521025624446
11520328,1910,2010,1898,1892,1745226521025624446
11521328,1920,2024,1912,1924,1745226521025624446
11522328,1940,2054,1936,1964,1745226521025624446
11523328,1968,2091,1969,2005,1745226521025624446
11524328,1998,2115,2002,2043,1745226521025624446
11525328,2034,2118,2026,2079,1745226521025624446
11526328,2075,2111,2044,2107,1745226521025624446
11527328,2109,2102,2056,2129,1745226521025624446
11528329,2137,2102,2066,2146,1745226521025624446
11529329,2149,2110,2068,2160,1745226521025624446
11530329,2154,2112,2075,2170,1745226521025624446
11531329,2156,2106,2085,2180,1745226521025624446
11532329,2166,2076,2095,2182,1745226521025624446
11533330,2184,2058,2114,2176,1745226521025624446
11534329,2198,2020,2097,2170,1745226521025624446
11535329,2205,1977,2082,2128,1745226521025624446
11536329,2197,1949,2054,2098,1745226521025624446
11537329,2163,1931,2018,2070,1745226521025624446
11538329,2105,1930,1983,2038,1745226521025624446
11539329,2028,1946,1956,2016,1745226521025624446
11540329,1955,1978,1939,2024,1745226521025624446
11541330,1899,2021,1938,2004,1745226521025624446
11542330,1870,2066,1952,2014,1745226521025624446
11543330,1872,2096,1973,2027,1745226521025624446
11544330,1900,2106,1996,2041,1745226521025624446
11545330,1946,2097,2016,2054,1745226521025624446
11546330,1993,2080,2030,2066,1745226521025624446
11547330,2032,2064,2042,2075,1745226521025624446
11548330,2063,2054,2054,2083,1745226521025624446
11549330,2086,2051,2062,2086,1745226521025624446
11550330,2101,2051,2068,2088,1745226521025624446
11551330,2112,2054,2074,2088,1745226521025624446
11552330,2115,2056,2076,2086,1745226521025624446
11553331,2109,2053,2073,2073,1745226521025624446
11554331,2096,2040,2063,2051,1745226521025624446
11555331,2070,2029,2049,2022,1745226521025624446
11556331,2036,2016,2032,1995,1745226521025624446
11557331,2004,1999,2017,1974,1745226521025624446
11558331,1979,1981,2009,1963,1745226521025624446
11559331,1965,1966,2006,1961,1745226521025624446
11560331,1962,1966,2016,1972,1745226521025624446
11561331,1971,1984,2033,1998,1745226521025624446
11562331,1990,2020,2059,2030,1745226521086057592
11563331,2017,2062,2079,2062,1745226521086057592
11564331,2042,2098,2089,2080,1745226521086057592
11565332,2060,2122,2087,2090,1745226521086057592
11566332,2068,2134,2082,2097,1745226521086057592
11567332,2076,2139,2076,2099,1745226521086057592
11568332,2084,2138,2072,2101,1745226521086057592
11569332,2097,2131,2069,2101,1745226521086057592
11570332,2118,2120,2074,2101,1745226521086057592
11571332,2148,2107,2084,2100,1745226521086057592
11572332,2182,2093,2097,2094,1745226521086057592
11573332,2220,2070,2112,2075,1745226521086057592
11574332,2254,2034,2122,2052,1745226521086057592
11575332,2273,1995,2122,2015,1745226521086057592
11576332,2261,1957,2108,1992,1745226521086057592
11577333,2228,1930,2086,1979,1745226521086057592
11578333,2194,1915,2057,1979,1745226521086057592
11579333,2142,1922,2020,1995,1745226521086057592
11580333,2096,1952,1980,2013,1745226521086057592
11581333,2018,2002,1946,2034,1745226521086057592
11582333,1944,2060,1926,2054,1745226521086057592
11583333,1886,2109,1927,2068,1745226521086057592
11584333,1857,2141,1943,2076,1745226521086057592
11585333,1852,2160,1965,2078,1745226521086057592
11586333,1862,2163,1990,2076,1745226521086057592
11587335,1880,2162,2008,2069,1745226521086057592
11588333,1901,2152,2020,2063,1745226521086057592
11589334,1925,2141,2043,2058,1745226521086057592
11590334,1940,2128,2041,2062,1745226521086057592
11591334,1966,2118,2053,2066,1745226521086057592
11592335,1986,2110,2061,2067,1745226521086057592
11593334,1998,2099,2063,2058,1745226521086057592
11594334,1998,2081,2054,2037,1745226521086057592
11595334,1980,2060,2037,2012,1745226521086057592
11596334,1952,2043,2019,1987,1745226521086057592
11597334,1917,2028,2003,1966,1745226521086057592
11598334,1887,2021,1989,1950,1745226521086057592
11599334,1868,2027,1981,1939,1745226521086057592
11600334,1870,2034,1978,1936,1745226521086057592
11601335,1893,2035,1980,1946,1745226521086057592
11602335,1928,2041,1990,1968,1745226521086057592
11603335,1963,2049,2006,1996,1745226521086057592
11604335,1992,2054,2026,2024,1745226521086057592
11605335,2018,2058,2044,2052,1745226521086057592
11606335,2040,2060,2064,2073,1745226521086057592
11607335,2064,2061,2080,2084,1745226521086057592
11608335,2085,2060,2094,2097,1745226521086057592
11609335,2108,2057,2109,2092,1745226521086057592
11610335,2131,2053,2122,2085,1745226521086057592
11611335,2152,2048,2132,2074,1745226521086057592
11612335,2164,2044,2138,2056,1745226521086057592
11613336,2161,2037,2131,2026,1745226521086057592
11614336,2142,2025,2113,1990,1745226521086057592
11615336,2111,2006,2085,1955,1745226521086057592
11616336,2073,1988,2054,1929,1745226521086057592
11617336,2032,1971,2023,1918,1745226521086057592
11618336,1993,1957,1998,1920,1745226521086057592
11619336,1960,1947,1980,1935,1745226521086057592
11620336,1933,1946,1971,1964,1745226521144284925
11621336,1922,1954,1976,2004,1745226521144284925
11622336,1929,1976,1994,2052,1745226521144284925
11623336,1946,2009,2017,2091,1745226521144284925
11624336,1973,2041,2042,2121,1745226521144284925
11625337,1997,2067,2065,2141,1745226521144284925
11626337,2016,2084,2082,2158,1745226521144284925
11627337,2028,2094,2090,2166,1745226521144284925
11628337,2040,2090,2096,2164,1745226521144284925
11629337,2054,2078,2097,2157,1745226521144284925
11630337,2067,2062,2098,2148,1745226521144284925
11631337,2080,2048,2099,2139,1745226521144284925
11632337,2089,2034,2100,2128,1745226521144284925
11633337,2093,2026,2097,2108,1745226521144284925
11634337,2085,2020,2088,2077,1745226521144284925
11635337,2066,2010,2066,2038,1745226521144284925
11636337,2040,1995,2038,2002,1745226521144284925
11637338,2014,1977,2014,1974,1745226521144284925
11638338,1993,1961,1996,1960,1745226521144284925
11639338,1985,1953,1987,1962,1745226521144284925
11640338,1981,1949,1989,1984,1745226521144284925
11641338,1992,1953,2004,2020,1745226521144284925
11642338,2017,1967,2028,2059,1745226521144284925
11643338,2051,1985,2057,2084,1745226521144284925
11644338,2078,2003,2081,2094,1745226521144284925
11645338,2099,2024,2099,2080,1745226521144284925
11646338,2116,2042,2110,2081,1745226521144284925
11647338,2132,2062,2116,2069,1745226521144284925
11648338,2136,2076,2118,2064,1745226521144284925
11649339,2132,2092,2100,2064,1745226521144284925
11650339,2129,2101,2101,2062,1745226521144284925
11651339,2101,2106,2098,2061,1745226521144284925
11652339,2089,2109,2093,2050,1745226521144284925
11653339,2074,2107,2084,2025,1745226521144284925
11654339,2053,2098,2073,1988,1745226521144284925
11655339,2021,2083,2044,1948,1745226521144284925
11656339,1987,2066,2031,1913,1745226521144284925
11657339,1949,2053,2011,1884,1745226521144284925
11658339,1915,2037,1995,1866,1745226521144284925
11659339,1889,2034,1984,1860,1745226521144284925
11660339,1874,2042,1979,1870,1745226521144284925
11661340,1875,2056,1987,1892,1745226521144284925
11662340,1900,2066,2003,1929,1745226521144284925
11663340,1948,2069,2028,1968,1745226521144284925
11664340,2002,2070,2062,2004,1745226521144284925
11665340,2066,2071,2083,2033,1745226521144284925
11666340,2117,2070,2107,2051,1745226521144284925
11667340,2155,2069,2128,2054,1745226521144284925
11668340,2182,2067,2144,2056,1745226521144284925
11669340,2203,2065,2156,2052,1745226521144284925
11670340,2218,2062,2161,2052,1745226521144284925
11671340,2229,2060,2158,2057,1745226521144284925
11672340,2225,2059,2153,2063,1745226521144284925
11673341,2200,2053,2120,2060,1745226521144284925
11674341,2153,2038,2084,2042,1745226521144284925
11675341,2099,2019,2042,2016,1745226521144284925
11676341,2043,1998,2003,1984,1745226521144284925
11677341,1993,1980,1970,1953,1745226521144284925
11678341,1953,1965,1945,1929,1745226521202458924
11679341,1923,1955,1932,1914,1745226521202458924
11680341,1907,1949,1929,1917,1745226521202458924
11681341,1908,1953,1938,1939,1745226521202458924
11682341,1925,1965,1960,1977,1745226521202458924
11683341,1953,1981,1987,2022,1745226521202458924
11684342,1988,1999,2017,2068,1745226521202458924
11685342,2022,2018,2042,2102,1745226521202458924
11686342,2053,2035,2064,2129,1745226521202458924
11687342,2077,2059,2081,2147,1745226521202458924
11688342,2093,2079,2092,2156,1745226521202458924
11689342,2104,2092,2099,2158,1745226521202458924
11690342,2113,2088,2101,2155,1745226521202458924
11691342,2122,2077,2101,2148,1745226521202458924
11692342,2130,2065,2097,2136,1745226521202458924
11693342,2133,2054,2089,2113,1745226521202458924
11694344,2127,2044,2074,2081,1745226521202458924
11695342,2105,2036,2053,2041,1745226521202458924
11696343,2076,2026,2030,2010,1745226521202458924
11697343,2044,2018,2011,1980,1745226521202458924
11698343,2014,2016,1997,1958,1745226521202458924
11699343,1987,2014,1988,1947,1745226521202458924
11700343,1968,2021,1988,1949,1745226521202458924
11701343,1963,2041,1995,1968,1745226521202458924
11702343,1980,2070,2008,1995,1745226521202458924
11703343,2012,2092,2024,2025,1745226521202458924
11704343,2053,2104,2040,2053,1745226521202458924
11705343,2089,2107,2058,2075,1745226521202458924
11706343,2120,2105,2067,2086,1745226521202458924
11707343,2140,2098,2078,2096,1745226521202458924
11708343,2154,2104,2068,2100,1745226521202458924
11709344,2161,2094,2088,2105,1745226521202458924
11710344,2163,2084,2090,2107,1745226521202458924
11711344,2162,2077,2092,2108,1745226521202458924
11712344,2160,2071,2096,2106,1745226521202458924
11713344,2153,2059,2093,2089,1745226521202458924
11714344,2140,2039,2088,2067,1745226521202458924
11715344,2118,2013,2073,2033,1745226521202458924
11716344,2089,1986,2057,1998,1745226521202458924
11717344,2056,1961,2038,1969,1745226521202458924
11718344,2024,1938,2025,1952,1745226521202458924
11719344,2002,1921,2017,1949,1745226521202458924
11720344,1996,1912,2018,1968,1745226521202458924
11721345,2005,1914,2032,2010,1745226521202458924
11722345,2030,1929,2058,2074,1745226521202458924
11723345,2067,1951,2090,2140,1745226521202458924
11724345,2105,1970,2118,2196,1745226521202458924
11725345,2141,1981,2136,2230,1745226521202458924
11726345,2161,1990,2146,2244,1745226521202458924
11727345,2166,2002,2145,2232,1745226521202458924
11728345,2155,2018,2144,2202,1745226521202458924
11729345,2136,2035,2140,2159,1745226521202458924
11730345,2114,2052,2135,2117,1745226521202458924
11731345,2096,2066,2130,2077,1745226521202458924
11732345,2083,2074,2122,2041,1745226521202458924
11733346,2069,2076,2107,2006,1745226521202458924
11734346,2053,2064,2096,1969,1745226521202458924
11735346,2030,2041,2076,1932,1745226521202458924
11736346,2003,2025,2052,1901,1745226521259450487
11737346,1976,2014,2027,1877,1745226521259450487
11738346,1949,2002,2005,1862,1745226521259450487
11739346,1932,1995,1987,1858,1745226521259450487
11740346,1922,2000,1978,1869,1745226521259450487
11741346,1923,2019,1980,1897,1745226521259450487
11742346,1938,2049,1995,1939,1745226521259450487
11743346,1961,2082,2020,1987,1745226521259450487
11744346,1989,2109,2051,2033,1745226521259450487
11745347,2017,2128,2077,2073,1745226521259450487
11746347,2044,2131,2099,2102,1745226521259450487
11747347,2068,2125,2115,2124,1745226521259450487
11748347,2086,2117,2126,2137,1745226521259450487
11749347,2100,2102,2131,2144,1745226521259450487
11750347,2114,2083,2131,2144,1745226521259450487
11751347,2125,2064,2129,2139,1745226521259450487
11752347,2134,2044,2125,2129,1745226521259450487
11753347,2137,2026,2117,2109,1745226521259450487
11754347,2130,2009,2101,2080,1745226521259450487
11755347,2110,1994,2076,2037,1745226521259450487
11756347,2081,1981,2044,1995,1745226521259450487
11757348,2044,1974,2013,1958,1745226521259450487
11758348,2006,1977,1988,1928,1745226521259450487
11759348,1974,1988,1971,1910,1745226521259450487
11760348,1954,2001,1964,1912,1745226521259450487
11761348,1947,2020,1972,1933,1745226521259450487
11762349,1953,2048,1993,1969,1745226521259450487
11763348,1972,2074,2019,2012,1745226521259450487
11764348,2002,2098,2043,2052,1745226521259450487
11765348,2025,2115,2069,2081,1745226521259450487
11766348,2063,2129,2088,2101,1745226521259450487
11767348,2088,2139,2099,2117,1745226521259450487
11768348,2107,2146,2108,2130,1745226521259450487
11769349,2118,2154,2118,2140,1745226521259450487
11770349,2119,2162,2126,2148,1745226521259450487
11771349,2112,2163,2134,2150,1745226521259450487
11772349,2102,2153,2138,2141,1745226521259450487
11773349,2091,2128,2130,2113,1745226521259450487
11774349,2080,2091,2106,2069,1745226521259450487
11775349,2067,2040,2066,2011,1745226521259450487
11776349,2057,1993,2025,1959,1745226521259450487
11777349,2041,1949,1985,1913,1745226521259450487
11778349,2024,1914,1952,1883,1745226521259450487
11779349,2006,1893,1929,1869,1745226521259450487
11780349,1993,1886,1921,1876,1745226521259450487
11781350,1986,1897,1926,1904,1745226521259450487
11782350,1994,1924,1948,1947,1745226521259450487
11783350,2013,1961,1974,1989,1745226521259450487
11784350,2042,2000,2005,2039,1745226521259450487
11785350,2069,2037,2037,2078,1745226521259450487
11786350,2088,2076,2067,2107,1745226521259450487
11787350,2100,2108,2092,2124,1745226521259450487
11788350,2108,2134,2112,2133,1745226521259450487
11789350,2114,2153,2127,2136,1745226521259450487
11790350,2120,2165,2139,2135,1745226521259450487
11791350,2122,2179,2148,2133,1745226521259450487
11792350,2120,2184,2154,2126,1745226521259450487
11793351,2113,2177,2149,2105,1745226521259450487
11794351,2102,2154,2133,2068,1745226521317697195
11795352,2081,2121,2105,2021,1745226521317697195
11796351,2057,2087,2072,1976,1745226521317697195
11797351,2024,2056,2036,1938,1745226521317697195
11798351,1990,2031,2010,1909,1745226521317697195
11799351,1958,2018,1994,1896,1745226521317697195
11800351,1936,2018,1988,1902,1745226521317697195
11801351,1925,2032,1998,1929,1745226521317697195
11802351,1929,2056,2019,1972,1745226521317697195
11803351,1950,2079,2049,2018,1745226521317697195
11804351,1982,2097,2075,2062,1745226521317697195
11805352,2020,2108,2094,2093,1745226521317697195
11806352,2059,2113,2108,2115,1745226521317697195
11807352,2090,2112,2115,2126,1745226521317697195
11808352,2116,2106,2118,2131,1745226521317697195
11809352,2139,2097,2116,2130,1745226521317697195
11810352,2153,2089,2112,2127,1745226521317697195
11811352,2163,2080,2107,2122,1745226521317697195
11812352,2171,2072,2097,2109,1745226521317697195
11813352,2173,2058,2086,2088,1745226521317697195
11814352,2160,2041,2070,2054,1745226521317697195
11815352,2130,2021,2050,2013,1745226521317697195
11816352,2085,2003,2025,1974,1745226521317697195
11817353,2035,1988,2004,1941,1745226521317697195
11818353,1986,1980,1986,1917,1745226521317697195
11819353,1945,1979,1976,1908,1745226521317697195
11820353,1914,1988,1979,1921,1745226521317697195
11821353,1897,2013,1996,1953,1745226521317697195
11822353,1896,2048,2022,1999,1745226521317697195
11823353,1911,2081,2060,2040,1745226521317697195
11824353,1943,2106,2089,2088,1745226521317697195
11825353,1981,2123,2116,2118,1745226521317697195
11826353,2014,2130,2139,2136,1745226521317697195
11827353,2050,2127,2153,2146,1745226521317697195
11828353,2075,2116,2163,2153,1745226521317697195
11829354,2093,2100,2170,2155,1745226521317697195
11830354,2107,2081,2173,2153,1745226521317697195
11831354,2119,2066,2174,2148,1745226521317697195
11832354,2127,2049,2171,2137,1745226521317697195
11833354,2130,2028,2161,2114,1745226521317697195
11834354,2122,2004,2141,2077,1745226521317697195
11835354,2097,1977,2116,2030,1745226521317697195
11836354,2063,1952,2088,1984,1745226521317697195
11837354,2021,1936,2056,1940,1745226521317697195
11838354,1984,1916,2018,1908,1745226521317697195
11839354,1953,1910,2005,1890,1745226521317697195
11840354,1929,1908,1995,1891,1745226521317697195
11841355,1921,1922,2001,1914,1745226521317697195
11842355,1927,1950,2020,1955,1745226521317697195
11843355,1948,1993,2051,1998,1745226521317697195
11844355,1975,2040,2082,2038,1745226521317697195
11845355,2002,2081,2112,2074,1745226521317697195
11846355,2026,2114,2137,2099,1745226521317697195
11847355,2041,2137,2156,2118,1745226521317697195
11848355,2057,2157,2170,2137,1745226521317697195
11849355,2061,2176,2181,2150,1745226521317697195
11850355,2056,2189,2192,2158,1745226521317697195
11851355,2037,2194,2197,2162,1745226521317697195
11852355,2028,2174,2197,2156,1745226521378912208
11853356,2025,2132,2186,2128,1745226521378912208
11854356,2020,2084,2164,2083,1745226521378912208
11855356,2012,2030,2129,2022,1745226521378912208
11856356,2001,1976,2086,1961,1745226521378912208
11857356,1989,1928,2043,1907,1745226521378912208
11858356,1970,1892,2008,1867,1745226521378912208
11859356,1949,1873,1977,1845,1745226521378912208
11860356,1931,1875,1969,1844,1745226521378912208
11861356,1921,1897,1974,1866,1745226521378912208
11862356,1926,1934,1986,1903,1745226521378912208
11863356,1949,1976,2009,1948,1745226521378912208
11864356,1981,2017,2035,1988,1745226521378912208
11865357,2014,2051,2061,2022,1745226521378912208
11866357,2043,2076,2083,2050,1745226521378912208
11867357,2067,2094,2100,2067,1745226521378912208
11868357,2084,2106,2115,2078,1745226521378912208
11869357,2097,2113,2128,2084,1745226521378912208
11870357,2106,2115,2137,2089,1745226521378912208
11871357,2113,2115,2141,2089,1745226521378912208
11872357,2117,2108,2144,2083,1745226521378912208
11873357,2119,2091,2136,2062,1745226521378912208
11874357,2113,2064,2117,2026,1745226521378912208
11875357,2096,2030,2090,1982,1745226521378912208
11876357,2065,2003,2062,1939,1745226521378912208
11877358,2024,1980,2032,1901,1745226521378912208
11878358,1985,1964,2009,1875,1745226521378912208
11879358,1950,1954,1994,1862,1745226521378912208
11880358,1928,1958,1992,1869,1745226521378912208
11881358,1917,1976,2006,1901,1745226521378912208
11882358,1922,2001,2032,1945,1745226521378912208
11883358,1952,2029,2064,1994,1745226521378912208
11884358,1989,2057,2092,2036,1745226521378912208
11885358,2026,2078,2118,2074,1745226521378912208
11886358,2059,2094,2137,2100,1745226521378912208
11887358,2079,2106,2150,2116,1745226521378912208
11888358,2100,2116,2156,2129,1745226521378912208
11889359,2114,2120,2158,2130,1745226521378912208
11890359,2125,2121,2157,2130,1745226521378912208
11891359,2132,2120,2155,2128,1745226521378912208
11892359,2137,2115,2150,2118,1745226521378912208
11893359,2137,2102,2137,2098,1745226521378912208
11894359,2129,2081,2114,2062,1745226521378912208
11895359,2108,2053,2084,2016,1745226521378912208
11896359,2080,2021,2049,1972,1745226521378912208
11897359,2043,1997,2013,1932,1745226521378912208
11898359,2010,1978,1984,1905,1745226521378912208
11899359,1981,1971,1964,1892,1745226521378912208
11900359,1958,1976,1956,1901,1745226521378912208
11901360,1948,1988,1963,1931,1745226521378912208
11902360,1954,2006,1984,1978,1745226521378912208
11903360,1974,2032,2014,2030,1745226521378912208
11904360,2003,2061,2048,2080,1745226521378912208
11905360,2034,2088,2075,2117,1745226521378912208
11906360,2062,2110,2094,2146,1745226521378912208
11907360,2082,2131,2109,2162,1745226521378912208
11908360,2098,2152,2118,2174,1745226521378912208
11909360,2112,2169,2122,2179,1745226521378912208
11910360,2120,2169,2122,2177,1745226521435666794
11911360,2131,2144,2118,2171,1745226521435666794
11912360,2145,2102,2109,2157,1745226521435666794
11913361,2155,2059,2093,2131,1745226521435666794
11914361,2156,2014,2068,2092,1745226521435666794
11915361,2141,1974,2033,2042,1745226521435666794
11916361,2113,1939,2000,1995,1745226521435666794
11917361,2072,1909,1970,1956,1745226521435666794
11918361,2026,1885,1945,1929,1745226521435666794
11919361,1986,1864,1929,1915,1745226521435666794
11920361,1956,1852,1923,1924,1745226521435666794
11921361,1943,1849,1931,1952,1745226521435666794
11922361,1949,1860,1952,1999,1745226521435666794
11923361,1972,1884,1980,2052,1745226521435666794
11924361,2003,1915,2009,2099,1745226521435666794
11925362,2033,1957,2036,2137,1745226521435666794
11926362,2058,2003,2057,2161,1745226521435666794
11927362,2077,2035,2069,2173,1745226521435666794
11928362,2093,2050,2076,2179,1745226521435666794
11929362,2104,2056,2080,2181,1745226521435666794
11930362,2107,2056,2082,2184,1745226521435666794
11931362,2102,2056,2086,2184,1745226521435666794
11932362,2093,2060,2088,2177,1745226521435666794
11933362,2085,2069,2076,2155,1745226521435666794
11934362,2075,2072,2052,2112,1745226521435666794
11935362,2059,2058,2016,2058,1745226521435666794
11936362,2032,2026,1974,2000,1745226521435666794
11937363,2004,1992,1937,1953,1745226521435666794
11938363,1977,1958,1902,1915,1745226521435666794
11939363,1959,1933,1879,1885,1745226521435666794
11940364,1945,1915,1867,1897,1745226521435666794
11941363,1943,1917,1870,1920,1745226521435666794
11942363,1954,1941,1883,1960,1745226521435666794
11943363,1976,1949,1909,2002,1745226521435666794
11944363,1996,1980,1938,2058,1745226521435666794
11945363,2021,2006,1965,2097,1745226521435666794
11946363,2043,2034,1986,2117,1745226521435666794
11947363,2062,2062,1999,2132,1745226521435666794
11948363,2076,2085,2000,2141,1745226521435666794
11949364,2088,2105,2010,2145,1745226521435666794
11950364,2099,2102,2014,2145,1745226521435666794
11951364,2107,2108,2016,2143,1745226521435666794
11952364,2112,2110,2015,2134,1745226521435666794
11953364,2114,2105,2006,2111,1745226521435666794
11954364,2110,2090,1989,2074,1745226521435666794
11955364,2097,2069,1967,2027,1745226521435666794
11956364,2075,2053,1944,1981,1745226521435666794
11957364,2044,2042,1923,1940,1745226521435666794
11958364,2010,2037,1906,1912,1745226521435666794
11959364,1980,2032,1894,1897,1745226521435666794
11960364,1958,2034,1891,1902,1745226521435666794
11961365,1949,2049,1902,1930,1745226521435666794
11962365,1954,2075,1927,1973,1745226521435666794
11963365,1971,2105,1959,2019,1745226521435666794
11964365,1998,2122,1990,2061,1745226521435666794
11965365,2032,2122,2016,2089,1745226521435666794
11966365,2065,2115,2033,2107,1745226521435666794
11967365,2094,2104,2048,2116,1745226521435666794
11968365,2117,2094,2056,2122,1745226521496149158
11969365,2130,2088,2065,2128,1745226521496149158
11970365,2133,2088,2077,2132,1745226521496149158
11971365,2130,2088,2085,2136,1745226521496149158
11972365,2126,2085,2088,2130,1745226521496149158
11973366,2121,2072,2082,2108,1745226521496149158
11974366,2109,2049,2064,2073,1745226521496149158
11975366,2090,2018,2036,2025,1745226521496149158
11976366,2059,1990,2007,1977,1745226521496149158
11977366,2018,1970,1978,1936,1745226521496149158
11978366,1978,1961,1954,1905,1745226521496149158
11979366,1942,1963,1938,1889,1745226521496149158
11980366,1914,1975,1933,1893,1745226521496149158
11981366,1900,2001,1942,1920,1745226521496149158
11982366,1901,2035,1966,1965,1745226521496149158
11983366,1921,2077,1997,2017,1745226521496149158
11984366,1949,2109,2028,2066,1745226521496149158
11985367,1986,2130,2060,2105,1745226521496149158
11986367,2020,2138,2082,2135,1745226521496149158
11987367,2053,2140,2097,2155,1745226521496149158
11988367,2076,2139,2107,2168,1745226521496149158
11989367,2092,2139,2112,2174,1745226521496149158
11990367,2104,2141,2114,2178,1745226521496149158
11991367,2107,2145,2116,2177,1745226521496149158
11992367,2106,2144,2113,2166,1745226521496149158
11993367,2107,2121,2101,2139,1745226521496149158
11994367,2106,2077,2076,2097,1745226521496149158
11995367,2099,2021,2040,2043,1745226521496149158
11996367,2083,1970,2000,1990,1745226521496149158
11997369,2059,1929,1962,1947,1745226521496149158
11998368,2026,1905,1934,1914,1745226521496149158
11999368,1994,1897,1924,1885,1745226521496149158
12000368,1965,1909,1917,1908,1745226521496149158
12001369,1944,1941,1934,1940,1745226521496149158
12002368,1940,1992,1964,1988,1745226521496149158
12003368,1953,2051,2001,2042,1745226521496149158
12004368,1978,2102,2037,2093,1745226521496149158
12005368,2003,2144,2069,2132,1745226521496149158
12006368,2048,2176,2090,2160,1745226521496149158
12007368,2074,2195,2104,2178,1745226521496149158
12008368,2099,2209,2115,2192,1745226521496149158
12009369,2113,2220,2126,2203,1745226521496149158
12010369,2113,2236,2138,2210,1745226521496149158
12011369,2107,2250,2145,2210,1745226521496149158
12012369,2104,2241,2145,2197,1745226521496149158
12013369,2106,2212,2133,2169,1745226521496149158
12014369,2105,2177,2109,2125,1745226521496149158
12015369,2095,2133,2083,2073,1745226521496149158
12016369,2078,2093,2037,2017,1745226521496149158
12017369,2054,2058,2003,1968,1745226521496149158
12018370,2025,2033,1974,1934,1745226521496149158
12019369,1993,2026,1957,1917,1745226521496149158
12020369,1963,2037,1954,1925,1745226521496149158
12021370,1944,2066,1965,1956,1745226521496149158
12022370,1941,2106,1988,2003,1745226521496149158
12023370,1957,2144,2017,2057,1745226521496149158
12024370,1987,2176,2048,2104,1745226521496149158
12025370,2022,2198,2072,2141,1745226521496149158
12026370,2058,2209,2090,2169,1745226521552810099
12027370,2088,2214,2104,2190,1745226521552810099
12028371,2103,2216,2115,2206,1745226521552810099
12029371,2128,2221,2124,2217,1745226521552810099
12030370,2138,2226,2128,2222,1745226521552810099
12031371,2146,2227,2130,2224,1745226521552810099
12032370,2149,2216,2126,2214,1745226521552810099
12033371,2148,2189,2114,2188,1745226521552810099
12034371,2138,2147,2091,2144,1745226521552810099
12035371,2118,2096,2061,2092,1745226521552810099
12036371,2090,2043,2024,2037,1745226521552810099
12037371,2058,2002,1990,1994,1745226521552810099
12038371,2024,1971,1962,1961,1745226521552810099
12039371,1996,1948,1940,1943,1745226521552810099
12040371,1980,1941,1931,1945,1745226521552810099
12041371,1977,1952,1939,1970,1745226521552810099
12042371,1987,1978,1963,2013,1745226521552810099
12043371,2011,2011,1998,2066,1745226521552810099
12044371,2039,2049,2036,2117,1745226521552810099
12045372,2066,2078,2074,2160,1745226521552810099
12046372,2084,2100,2104,2193,1745226521552810099
12047372,2100,2113,2125,2213,1745226521552810099
12048372,2115,2121,2139,2225,1745226521552810099
12049372,2127,2128,2146,2229,1745226521552810099
12050372,2136,2132,2149,2229,1745226521552810099
12051372,2142,2134,2149,2226,1745226521552810099
12052372,2149,2133,2148,2214,1745226521552810099
12053372,2151,2126,2139,2188,1745226521552810099
12054372,2145,2108,2121,2144,1745226521552810099
12055372,2124,2083,2094,2100,1745226521552810099
12056372,2091,2055,2060,2051,1745226521552810099
12057373,2052,2033,2034,2010,1745226521552810099
12058373,2009,2018,2011,1979,1745226521552810099
12059373,1977,2022,1993,1963,1745226521552810099
12060374,1950,2009,1988,1969,1745226521552810099
12061373,1938,2026,1998,1998,1745226521552810099
12062373,1942,2053,2020,2044,1745226521552810099
12063373,1966,2080,2053,2098,1745226521552810099
12064373,2003,2100,2082,2145,1745226521552810099
12065373,2048,2109,2104,2180,1745226521552810099
12066373,2087,2107,2120,2204,1745226521552810099
12067373,2122,2090,2126,2218,1745226521552810099
12068373,2150,2075,2131,2227,1745226521552810099
12069374,2174,2049,2130,2228,1745226521552810099
12070374,2194,2014,2127,2229,1745226521552810099
12071374,2210,1981,2121,2226,1745226521552810099
12072374,2220,1950,2115,2216,1745226521552810099
12073374,2220,1922,2102,2195,1745226521552810099
12074374,2208,1894,2082,2162,1745226521552810099
12075374,2181,1868,2054,2120,1745226521552810099
12076374,2144,1849,2022,2075,1745226521552810099
12077374,2100,1842,1995,2033,1745226521552810099
12078374,2054,1846,1972,2008,1745226521552810099
12079374,2009,1869,1961,1994,1745226521552810099
12080374,1973,1911,1961,1999,1745226521552810099
12081375,1952,1970,1972,2021,1745226521552810099
12082375,1952,2043,1995,2060,1745226521552810099
12083375,1969,2125,2028,2102,1745226521552810099
12084375,1989,2205,2067,2142,1745226521612946216
12085375,2003,2268,2102,2173,1745226521612946216
12086375,2018,2303,2129,2192,1745226521612946216
12087375,2039,2313,2145,2197,1745226521612946216
12088375,2067,2303,2149,2193,1745226521612946216
12089375,2097,2278,2145,2182,1745226521612946216
12090375,2128,2247,2139,2173,1745226521612946216
12091375,2152,2217,2133,2162,1745226521612946216
12092375,2164,2192,2125,2150,1745226521612946216
12093376,2168,2166,2114,2128,1745226521612946216
12094376,2158,2137,2093,2093,1745226521612946216
12095376,2139,2101,2064,2050,1745226521612946216
12096376,2114,2061,2026,2001,1745226521612946216
12097376,2086,2020,1988,1963,1745226521612946216
12098376,2056,1990,1957,1934,1745226521612946216
12099376,2027,1970,1932,1918,1745226521612946216
12100376,2009,1960,1921,1920,1745226521612946216
12101376,1998,1963,1925,1947,1745226521612946216
12102376,1994,1977,1952,1993,1745226521612946216
12103376,2002,1996,1987,2048,1745226521612946216
12104376,2020,2011,2022,2099,1745226521612946216
12105377,2048,2018,2054,2139,1745226521612946216
12106377,2077,2018,2077,2169,1745226521612946216
12107377,2105,2015,2090,2189,1745226521612946216
12108377,2129,2013,2098,2200,1745226521612946216
12109377,2149,2016,2100,2204,1745226521612946216
12110377,2162,2034,2101,2206,1745226521612946216
12111377,2166,2050,2105,2203,1745226521612946216
12112377,2163,2082,2107,2193,1745226521612946216
12113377,2153,2099,2101,2165,1745226521612946216
12114377,2132,2108,2085,2123,1745226521612946216
12115377,2106,2098,2059,2069,1745226521612946216
12116377,2075,2075,2027,2002,1745226521612946216
12117378,2040,2050,1987,1961,1745226521612946216
12118378,2011,2027,1955,1922,1745226521612946216
12119378,1981,2011,1929,1897,1745226521612946216
12120378,1958,2001,1916,1896,1745226521612946216
12121378,1943,2016,1921,1921,1745226521612946216
12122378,1952,2038,1941,1965,1745226521612946216
12123378,1946,2066,1972,2020,1745226521612946216
12124378,1968,2091,2005,2070,1745226521612946216
12125378,1996,2108,2035,2109,1745226521612946216
12126378,2024,2120,2061,2135,1745226521612946216
12127378,2054,2123,2077,2148,1745226521612946216
12128378,2077,2124,2087,2154,1745226521612946216
12129379,2097,2122,2092,2153,1745226521612946216
12130379,2112,2120,2094,2148,1745226521612946216
12131379,2124,2115,2093,2141,1745226521612946216
12132379,2131,2108,2089,2136,1745226521612946216
12133379,2132,2096,2080,2112,1745226521612946216
12134379,2123,2076,2064,2081,1745226521612946216
12135379,2099,2051,2038,2038,1745226521612946216
12136379,2064,2022,2012,1997,1745226521612946216
12137379,2022,1998,1985,1958,1745226521612946216
12138379,1985,1976,1962,1930,1745226521612946216
12139379,1953,1964,1944,1916,1745226521612946216
12140379,1929,1965,1939,1924,1745226521612946216
12141380,1914,1979,1947,1953,1745226521612946216
12142380,1915,2005,1970,1998,1745226521670971676
12143380,1932,2037,2000,2050,1745226521670971676
12144380,1962,2069,2030,2094,1745226521670971676
12145380,1993,2094,2059,2130,1745226521670971676
12146380,2025,2112,2080,2152,1745226521670971676
12147380,2054,2123,2092,2164,1745226521670971676
12148380,2077,2125,2100,2170,1745226521670971676
12149380,2099,2124,2102,2171,1745226521670971676
12150380,2114,2118,2100,2163,1745226521670971676
12151380,2126,2112,2095,2160,1745226521670971676
12152380,2137,2104,2086,2148,1745226521670971676
12153381,2141,2092,2074,2124,1745226521670971676
12154381,2134,2071,2053,2084,1745226521670971676
12155381,2116,2040,2022,2033,1745226521670971676
12156381,2088,2006,1985,1981,1745226521670971676
12157381,2053,1972,1962,1939,1745226521670971676
12158381,2012,1947,1940,1908,1745226521670971676
12159381,1973,1930,1928,1893,1745226521670971676
12160381,1942,1924,1928,1900,1745226521670971676
12161381,1922,1931,1941,1928,1745226521670971676
12162381,1921,1945,1968,1973,1745226521670971676
12163381,1933,1963,2005,2028,1745226521670971676
12164381,1955,1982,2044,2082,1745226521670971676
12165382,1978,2002,2081,2128,1745226521670971676
12166382,2002,2022,2101,2160,1745226521670971676
12167382,2027,2043,2125,2178,1745226521670971676
12168382,2050,2073,2138,2188,1745226521670971676
12169382,2063,2108,2146,2185,1745226521670971676
12170382,2075,2131,2147,2169,1745226521670971676
12171382,2089,2136,2143,2148,1745226521670971676
12172382,2105,2133,2131,2121,1745226521670971676
12173382,2118,2118,2128,2084,1745226521670971676
12174382,2120,2097,2089,2041,1745226521670971676
12175382,2113,2072,2057,1989,1745226521670971676
12176382,2090,2035,2014,1944,1745226521670971676
12177383,2060,2004,1972,1890,1745226521670971676
12178383,2037,1976,1933,1856,1745226521670971676
12179383,2014,1957,1902,1836,1745226521670971676
12180383,1993,1952,1890,1836,1745226521670971676
12181383,1975,1965,1896,1864,1745226521670971676
12182383,1970,1995,1918,1910,1745226521670971676
12183383,1982,2026,1946,1960,1745226521670971676
12184383,2012,2051,1970,2005,1745226521670971676
12185383,2053,2061,1985,2035,1745226521670971676
12186383,2093,2064,1998,2058,1745226521670971676
12187383,2129,2058,2004,2071,1745226521670971676
12188383,2153,2052,2011,2082,1745226521670971676
12189384,2165,2048,2020,2091,1745226521670971676
12190384,2164,2048,2032,2099,1745226521670971676
12191384,2155,2049,2048,2105,1745226521670971676
12192384,2140,2053,2058,2104,1745226521670971676
12193384,2121,2052,2069,2094,1745226521670971676
12194384,2091,2049,2070,2070,1745226521670971676
12195384,2053,2042,2061,2033,1745226521670971676
12196384,2008,2037,2044,1994,1745226521670971676
12197384,1964,2030,2024,1956,1745226521670971676
12198384,1923,2026,2009,1930,1745226521670971676
12199384,1884,2026,2002,1917,1745226521670971676
12200384,1852,2035,2006,1923,1745226521727632252
12201385,1833,2056,2021,1948,1745226521727632252
12202385,1834,2083,2052,1990,1745226521727632252
12203385,1853,2112,2089,2036,1745226521727632252
12204385,1886,2141,2126,2084,1745226521727632252
12205385,1925,2165,2160,2122,1745226521727632252
12206385,1961,2181,2186,2152,1745226521727632252
12207385,1987,2192,2208,2169,1745226521727632252
12208385,2005,2196,2225,2181,1745226521727632252
12209385,2012,2186,2236,2186,1745226521727632252
12210385,2019,2168,2239,2185,1745226521727632252
12211385,2029,2148,2238,2181,1745226521727632252
12212385,2038,2132,2234,2173,1745226521727632252
12213386,2039,2120,2226,2154,1745226521727632252
12214386,2029,2104,2210,2120,1745226521727632252
12215386,2006,2091,2183,2076,1745226521727632252
12216386,1979,2069,2149,2026,1745226521727632252
12217386,1953,2042,2112,1981,1745226521727632252
12218386,1927,2018,2074,1945,1745226521727632252
12219386,1909,1994,2041,1917,1745226521727632252
12220386,1901,1979,2021,1910,1745226521727632252
12221386,1906,1982,2015,1923,1745226521727632252
12222386,1926,2002,2023,1954,1745226521727632252
12223386,1962,2024,2040,1995,1745226521727632252
12224386,2000,2041,2064,2032,1745226521727632252
12225387,2040,2056,2084,2064,1745226521727632252
12226387,2078,2067,2099,2086,1745226521727632252
12227387,2106,2074,2110,2102,1745226521727632252
12228387,2126,2081,2119,2112,1745226521727632252
12229387,2137,2085,2124,2116,1745226521727632252
12230387,2141,2087,2123,2118,1745226521727632252
12231387,2129,2086,2120,2118,1745226521727632252
12232387,2142,2082,2116,2114,1745226521727632252
12233389,2139,2080,2102,2094,1745226521727632252
12234387,2129,2053,2090,2077,1745226521727632252
12235387,2104,2024,2061,2020,1745226521727632252
12236387,2080,1996,2028,1975,1745226521727632252
12237388,2041,1969,2000,1937,1745226521727632252
12238388,2004,1942,1980,1912,1745226521727632252
12239388,1976,1921,1964,1898,1745226521727632252
12240388,1960,1905,1957,1901,1745226521727632252
12241388,1960,1900,1958,1924,1745226521727632252
12242388,1978,1905,1971,1962,1745226521727632252
12243388,2013,1920,1989,2004,1745226521727632252
12244388,2053,1940,2016,2050,1745226521727632252
12245388,2084,1964,2048,2089,1745226521727632252
12246388,2101,1992,2076,2114,1745226521727632252
12247388,2109,2021,2098,2142,1745226521727632252
12248388,2115,2051,2109,2152,1745226521727632252
12249389,2123,2074,2108,2149,1745226521727632252
12250389,2134,2090,2098,2138,1745226521727632252
12251389,2149,2099,2083,2120,1745226521727632252
12252389,2163,2101,2068,2100,1745226521727632252
12253389,2166,2095,2053,2073,1745226521727632252
12254389,2157,2077,2029,2034,1745226521727632252
12255389,2130,2051,2001,1989,1745226521727632252
12256389,2093,2016,1970,1942,1745226521727632252
12257389,2054,1982,1942,1900,1745226521727632252
12258389,2016,1950,1921,1872,1745226521788555237
12259389,1987,1924,1906,1860,1745226521788555237
12260389,1963,1912,1907,1872,1745226521788555237
12261390,1946,1920,1927,1907,1745226521788555237
12262390,1941,1945,1961,1960,1745226521788555237
12263390,1948,1986,2001,2014,1745226521788555237
12264390,1963,2037,2040,2064,1745226521788555237
12265390,1979,2088,2076,2094,1745226521788555237
12266390,2006,2112,2100,2112,1745226521788555237
12267390,2044,2108,2114,2117,1745226521788555237
12268390,2084,2097,2120,2115,1745226521788555237
12269390,2114,2085,2122,2109,1745226521788555237
12270390,2132,2083,2118,2102,1745226521788555237
12271390,2141,2086,2114,2097,1745226521788555237
12272390,2142,2091,2107,2090,1745226521788555237
12273391,2136,2093,2091,2067,1745226521788555237
12274391,2124,2084,2064,2030,1745226521788555237
12275391,2109,2064,2026,1978,1745226521788555237
12276391,2088,2033,1986,1925,1745226521788555237
12277391,2065,2004,1951,1881,1745226521788555237
12278391,2030,1979,1929,1846,1745226521788555237
12279391,2001,1965,1916,1830,1745226521788555237
12280391,1973,1964,1917,1840,1745226521788555237
12281391,1953,1976,1934,1861,1745226521788555237
12282391,1947,1993,1963,1907,1745226521788555237
12283391,1958,2008,2003,1962,1745226521788555237
12284391,1984,2020,2041,2012,1745226521788555237
12285392,2018,2028,2073,2054,1745226521788555237
12286392,2054,2033,2099,2082,1745226521788555237
12287392,2085,2038,2121,2105,1745226521788555237
12288392,2106,2050,2140,2121,1745226521788555237
12289393,2115,2068,2156,2130,1745226521788555237
12290392,2115,2077,2170,2138,1745226521788555237
12291394,2105,2099,2187,2137,1745226521788555237
12292392,2090,2115,2187,2138,1745226521788555237
12293392,2075,2123,2182,2120,1745226521788555237
12294392,2057,2115,2163,2086,1745226521788555237
12295392,2032,2095,2136,2036,1745226521788555237
12296392,2005,2066,2092,1983,1745226521788555237
12297393,1979,2037,2051,1934,1745226521788555237
12298393,1954,2015,2012,1893,1745226521788555237
12299393,1933,1997,1984,1866,1745226521788555237
12300393,1920,1989,1967,1860,1745226521788555237
12301393,1916,1993,1964,1876,1745226521788555237
12302393,1925,2008,1974,1915,1745226521788555237
12303393,1949,2029,1995,1964,1745226521788555237
12304393,1982,2050,2020,2011,1745226521788555237
12305393,2021,2067,2041,2052,1745226521788555237
12306393,2060,2075,2059,2082,1745226521788555237
12307393,2094,2078,2069,2100,1745226521788555237
12308393,2122,2076,2075,2113,1745226521788555237
12309394,2139,2073,2081,2122,1745226521788555237
12310394,2149,2067,2088,2128,1745226521788555237
12311394,2153,2062,2092,2129,1745226521788555237
12312394,2152,2059,2096,2125,1745226521788555237
12313394,2140,2057,2094,2112,1745226521788555237
12314394,2116,2055,2086,2081,1745226521788555237
12315394,2080,2052,2072,2040,1745226521788555237
12316394,2034,2050,2050,1994,1745226521844865452
12317394,1988,2048,2021,1952,1745226521844865452
12318394,1949,2048,1995,1915,1745226521844865452
12319394,1921,2042,1971,1890,1745226521844865452
12320394,1905,2041,1953,1883,1745226521844865452
12321395,1905,2044,1946,1899,1745226521844865452
12322395,1920,2057,1956,1940,1745226521844865452
12323395,1946,2070,1982,1994,1745226521844865452
12324395,1984,2075,2014,2049,1745226521844865452
12325395,2025,2074,2040,2093,1745226521844865452
12326395,2070,2053,2057,2124,1745226521844865452
12327395,2114,2029,2065,2142,1745226521844865452
12328395,2149,2008,2072,2155,1745226521844865452
12329395,2170,1997,2082,2164,1745226521844865452
