timestamp,emg0,emg1,emg2,emg3,pkt_time_ns
43462508,1859,2417,2518,2179,1745190593834698592
43463506,1813,2441,2434,2181,1745190593834698592
43464506,1782,2444,2350,2174,1745190593834698592
43465506,1768,2425,2274,2161,1745190593834698592
43466506,1764,2393,2210,2159,1745190593834698592
43467506,1769,2349,2156,2164,1745190593834698592
43468506,1776,2304,2104,2170,1745190593834698592
43469506,1789,2262,2048,2171,1745190593834698592
43470506,1803,2228,1984,2172,1745190593834698592
43471506,1821,2201,1922,2177,1745190593834698592
43472506,1838,2189,1859,2179,1745190593834698592
43473506,1857,2187,1794,2179,1745190593834698592
43474507,1874,2198,1731,2185,1745190593834698592
43475507,1891,2228,1679,2209,1745190593834698592
43476507,1902,2275,1642,2240,1745190593834698592
43477507,1909,2344,1629,2266,1745190593834698592
43478507,1909,2429,1646,2288,1745190593834698592
43479507,1906,2517,1682,2296,1745190593834698592
43480507,1905,2590,1716,2287,1745190593834698592
43481507,1906,2659,1721,2268,1745190593834698592
43482507,1914,2711,1697,2259,1745190593834698592
43483507,1929,2739,1670,2265,1745190593834698592
43484507,1948,2747,1668,2270,1745190593834698592
43485507,1972,2735,1714,2242,1745190593834698592
43486508,1995,2708,1790,2181,1745190593834698592
43487508,2017,2675,1874,2116,1745190593834698592
43488508,2036,2642,1948,2067,1745190593834698592
43489508,2056,2610,2000,2048,1745190593834698592
43490508,2072,2586,2005,2060,1745190593834698592
43491508,2085,2566,1965,2096,1745190593834698592
43492508,2097,2559,1907,2138,1745190593834698592
43493508,2107,2559,1867,2180,1745190593834698592
43494508,2113,2562,1861,2211,1745190593834698592
43495509,2115,2588,1897,2230,1745190593834698592
43496508,2099,2638,1960,2240,1745190593834698592
43497509,2092,2707,2010,2250,1745190593834698592
43498509,2072,2788,2035,2272,1745190593834698592
43499509,2052,2868,2038,2309,1745190593834698592
43500510,2032,2947,2032,2355,1745190593834698592
43501509,2020,3021,2020,2398,1745190593834698592
43502509,2014,3084,2008,2426,1745190593834698592
43503510,2018,3123,1989,2440,1745190593834698592
43504509,2026,3147,1971,2449,1745190593834698592
43505509,2041,3153,1954,2459,1745190593834698592
43506509,2062,3146,1933,2477,1745190593834698592
43507509,2084,3136,1904,2503,1745190593834698592
43508509,2106,3116,1881,2532,1745190593834698592
43509509,2127,3099,1882,2556,1745190593834698592
43510510,2144,3089,1914,2559,1745190593834698592
43511510,2153,3090,1986,2559,1745190593834698592
43512510,2160,3103,2058,2533,1745190593834698592
43513510,2158,3131,2099,2511,1745190593834698592
43514510,2155,3180,2085,2508,1745190593834698592
43515510,2144,3246,2022,2529,1745190593834698592
43516510,2128,3342,1932,2559,1745190593834698592
43517510,2107,3445,1843,2601,1745190593834698592
43518510,2084,3550,1778,2643,1745190593834698592
43519510,2061,3641,1753,2675,1745190593834698592
43520510,2035,3741,1778,2699,1745190593884251525
43521510,2008,3833,1843,2716,1745190593884251525
43522511,1990,3902,1918,2725,1745190593884251525
43523511,1981,3953,1965,2731,1745190593884251525
43524511,1979,3990,1947,2734,1745190593884251525
43525511,1978,4014,1872,2737,1745190593884251525
43526511,1977,4034,1763,2737,1745190593884251525
43527511,1970,4044,1645,2739,1745190593884251525
43528511,1960,4055,1541,2745,1745190593884251525
43529514,1956,4062,1473,2754,1745190593884251525
43530513,1950,4065,1419,2769,1745190593884251525
43531511,1965,4069,1388,2788,1745190593884251525
43532511,1989,4074,1372,2815,1745190593884251525
43533511,2036,4078,1365,2844,1745190593884251525
43534512,2089,4071,1361,2878,1745190593884251525
43535512,2145,4078,1362,2909,1745190593884251525
43536512,2203,4077,1371,2939,1745190593884251525
43537512,2248,4080,1386,2977,1745190593884251525
43538512,2289,4095,1411,3014,1745190593884251525
43539512,2325,4077,1440,3060,1745190593884251525
43540512,2369,4083,1466,3113,1745190593884251525
43541512,2412,4080,1470,3178,1745190593884251525
43542512,2454,4081,1454,3238,1745190593884251525
43543512,2498,4081,1434,3275,1745190593884251525
43544512,2534,4081,1414,3302,1745190593884251525
43545512,2562,4080,1398,3293,1745190593884251525
43546513,2589,4080,1390,3245,1745190593884251525
43547513,2608,4081,1390,3171,1745190593884251525
43548513,2618,4081,1381,3087,1745190593884251525
43549513,2624,4081,1349,3028,1745190593884251525
43550513,2632,4084,1301,3009,1745190593884251525
43551513,2636,4081,1262,3025,1745190593884251525
43552513,2642,4080,1245,3053,1745190593884251525
43553513,2648,4086,1264,3068,1745190593884251525
43554513,2644,4081,1310,3038,1745190593884251525
43555513,2637,4082,1367,2968,1745190593884251525
43556513,2633,4083,1406,2894,1745190593884251525
43557513,2634,4083,1417,2841,1745190593884251525
43558514,2636,4082,1392,2809,1745190593884251525
43559514,2640,4082,1348,2797,1745190593884251525
43560514,2648,4083,1302,2805,1745190593884251525
43561514,2659,4083,1266,2830,1745190593884251525
43562514,2675,4082,1246,2856,1745190593884251525
43563514,2699,4082,1242,2869,1745190593884251525
43564514,2730,4082,1246,2859,1745190593884251525
43565514,2766,4083,1257,2828,1745190593884251525
43566514,2806,4083,1270,2779,1745190593884251525
43567514,2846,4083,1269,2717,1745190593884251525
43568514,2883,4058,1253,2643,1745190593884251525
43569514,2916,3947,1238,2559,1745190593884251525
43570515,2942,3781,1238,2473,1745190593884251525
43571515,2968,3585,1260,2364,1745190593884251525
43572515,2998,3385,1304,2257,1745190593884251525
43573515,3032,3174,1355,2157,1745190593884251525
43574515,3066,2967,1391,2076,1745190593884251525
43575515,3103,2766,1413,2009,1745190593884251525
43576515,3133,2578,1429,1956,1745190593884251525
43577515,3161,2409,1446,1900,1745190593884251525
43578515,3180,2245,1466,1845,1745190593944815034
43579515,3194,2081,1487,1785,1745190593944815034
43580515,3205,1913,1518,1707,1745190593944815034
43581515,3212,1742,1547,1610,1745190593944815034
43582516,3218,1557,1579,1514,1745190593944815034
43583516,3225,1372,1609,1405,1745190593944815034
43584516,3234,1179,1641,1294,1745190593944815034
43585516,3251,962,1679,1185,1745190593944815034
43586516,3269,764,1718,1079,1745190593944815034
43587516,3292,606,1764,984,1745190593944815034
43588517,3312,492,1811,905,1745190593944815034
43589518,3320,393,1849,825,1745190593944815034
43590516,3325,317,1880,762,1745190593944815034
43591516,3315,256,1885,704,1745190593944815034
43592516,3290,208,1865,655,1745190593944815034
43593516,3253,169,1843,616,1745190593944815034
43594517,3208,138,1832,573,1745190593944815034
43595517,3161,114,1848,531,1745190593944815034
43596517,3106,97,1881,496,1745190593944815034
43597517,3046,81,1912,451,1745190593944815034
43598517,2985,70,1945,417,1745190593944815034
43599517,2924,62,1988,398,1745190593944815034
43600517,2864,52,2058,392,1745190593944815034
43601517,2800,46,2150,392,1745190593944815034
43602517,2738,43,2254,399,1745190593944815034
43603517,2675,39,2350,425,1745190593944815034
43604517,2616,37,2435,470,1745190593944815034
43605517,2560,35,2468,512,1745190593944815034
43606518,2512,32,2464,555,1745190593944815034
43607518,2461,32,2435,578,1745190593944815034
43608518,2411,29,2408,573,1745190593944815034
43609518,2361,28,2399,512,1745190593944815034
43610518,2311,28,2413,408,1745190593944815034
43611518,2262,28,2437,315,1745190593944815034
43612518,2213,26,2462,251,1745190593944815034
43613518,2165,27,2484,204,1745190593944815034
43614518,2115,25,2497,166,1745190593944815034
43615518,2066,26,2505,139,1745190593944815034
43616518,2013,26,2514,141,1745190593944815034
43617518,1955,25,2530,174,1745190593944815034
43618519,1895,25,2559,236,1745190593944815034
43619519,1834,25,2600,312,1745190593944815034
43620519,1773,24,2651,390,1745190593944815034
43621519,1712,24,2698,461,1745190593944815034
43622519,1656,24,2736,511,1745190593944815034
43623519,1603,24,2756,553,1745190593944815034
43624519,1556,25,2777,590,1745190593944815034
43625519,1524,24,2788,632,1745190593944815034
43626519,1486,25,2800,673,1745190593944815034
43627519,1453,24,2818,715,1745190593944815034
43628519,1422,24,2843,737,1745190593944815034
43629519,1389,25,2866,752,1745190593944815034
43630520,1370,25,2904,762,1745190593944815034
43631520,1346,24,2940,780,1745190593944815034
43632520,1321,24,2968,810,1745190593944815034
43633520,1294,25,2979,852,1745190593944815034
43634522,1256,24,2972,893,1745190593944815034
43635520,1232,24,2952,931,1745190593944815034
43636520,1195,24,2925,968,1745190594006626136
43637520,1153,24,2913,1005,1745190594006626136
43638520,1106,24,2916,1048,1745190594006626136
43639520,1065,24,2937,1092,1745190594006626136
43640520,1030,24,2964,1141,1745190594006626136
43641520,998,24,2986,1184,1745190594006626136
43642521,973,24,2988,1220,1745190594006626136
43643521,949,24,2980,1254,1745190594006626136
43644521,932,24,2989,1284,1745190594006626136
43645521,919,25,2964,1313,1745190594006626136
43646521,916,25,2965,1335,1745190594006626136
43647521,920,24,2968,1355,1745190594006626136
43648521,933,24,2968,1368,1745190594006626136
43649521,952,21,2976,1392,1745190594006626136
43650521,969,24,2980,1413,1745190594006626136
43651521,985,24,2968,1435,1745190594006626136
43652521,997,22,2947,1455,1745190594006626136
43653521,1018,24,2923,1469,1745190594006626136
43654522,1041,21,2896,1489,1745190594006626136
43655522,1064,25,2865,1522,1745190594006626136
43656522,1080,45,2845,1570,1745190594006626136
43657522,1092,88,2827,1630,1745190594006626136
43658522,1089,144,2805,1693,1745190594006626136
43659522,1088,205,2786,1750,1745190594006626136
43660522,1081,261,2773,1793,1745190594006626136
43661522,1074,313,2770,1813,1745190594006626136
43662522,1069,355,2785,1796,1745190594006626136
43663522,1068,385,2805,1753,1745190594006626136
43664522,1072,397,2818,1706,1745190594006626136
43665522,1081,395,2821,1659,1745190594006626136
43666523,1090,375,2812,1621,1745190594006626136
43667523,1099,347,2800,1589,1745190594006626136
43668523,1109,314,2777,1568,1745190594006626136
43669523,1120,281,2748,1556,1745190594006626136
43670523,1130,248,2731,1557,1745190594006626136
43671523,1144,218,2723,1565,1745190594006626136
43672523,1160,188,2716,1577,1745190594006626136
43673523,1181,156,2724,1587,1745190594006626136
43674523,1205,122,2716,1587,1745190594006626136
43675523,1229,96,2701,1580,1745190594006626136
43676523,1252,79,2678,1567,1745190594006626136
43677523,1274,65,2667,1550,1745190594006626136
43678524,1290,54,2661,1538,1745190594006626136
43679524,1297,46,2651,1535,1745190594006626136
43680524,1300,42,2630,1535,1745190594006626136
43681524,1296,36,2592,1536,1745190594006626136
43682524,1288,34,2559,1546,1745190594006626136
43683524,1274,52,2536,1560,1745190594006626136
43684524,1256,96,2528,1581,1745190594006626136
43685524,1229,162,2550,1609,1745190594006626136
43686524,1198,242,2592,1645,1745190594006626136
43687524,1162,331,2648,1693,1745190594006626136
43688524,1124,425,2690,1752,1745190594006626136
43689524,1091,511,2700,1817,1745190594006626136
43690525,1061,603,2688,1883,1745190594006626136
43691525,1040,699,2662,1939,1745190594006626136
43692525,1025,795,2642,1998,1745190594006626136
43693525,1016,891,2626,2060,1745190594006626136
43694525,1009,987,2611,2120,1745190594066477048
43695525,1003,1086,2598,2185,1745190594066477048
43696525,1000,1188,2588,2254,1745190594066477048
43697525,1000,1292,2600,2334,1745190594066477048
43698525,1001,1395,2642,2416,1745190594066477048
43699525,1006,1495,2697,2496,1745190594066477048
43700525,1010,1578,2733,2560,1745190594066477048
43701525,1013,1654,2740,2609,1745190594066477048
43702526,1020,1715,2701,2629,1745190594066477048
43703526,1030,1757,2609,2606,1745190594066477048
43704526,1046,1782,2506,2543,1745190594066477048
43705527,1068,1794,2398,2428,1745190594066477048
43706526,1097,1789,2331,2306,1745190594066477048
43707526,1129,1773,2287,2192,1745190594066477048
43708526,1162,1750,2281,2106,1745190594066477048
43709526,1197,1726,2296,2058,1745190594066477048
43710526,1228,1707,2315,2050,1745190594066477048
43711526,1257,1688,2329,2066,1745190594066477048
43712526,1285,1683,2340,2101,1745190594066477048
43713526,1309,1685,2344,2133,1745190594066477048
43714527,1324,1696,2341,2144,1745190594066477048
43715527,1331,1720,2336,2130,1745190594066477048
43716527,1330,1761,2324,2108,1745190594066477048
43717527,1325,1813,2302,2097,1745190594066477048
43718527,1321,1869,2280,2112,1745190594066477048
43719527,1318,1926,2262,2159,1745190594066477048
43720527,1325,1984,2254,2225,1745190594066477048
43721527,1337,2032,2254,2298,1745190594066477048
43722527,1353,2076,2250,2344,1745190594066477048
43723527,1376,2105,2250,2395,1745190594066477048
43724527,1396,2124,2245,2422,1745190594066477048
43725527,1413,2137,2237,2436,1745190594066477048
43726528,1424,2141,2228,2433,1745190594066477048
43727528,1434,2138,2221,2420,1745190594066477048
43728528,1441,2133,2209,2408,1745190594066477048
43729528,1449,2128,2204,2395,1745190594066477048
43730528,1458,2125,2198,2388,1745190594066477048
43731528,1472,2129,2189,2386,1745190594066477048
43732528,1489,2142,2174,2388,1745190594066477048
43733528,1507,2162,2156,2400,1745190594066477048
43734528,1528,2188,2136,2427,1745190594066477048
43735528,1541,2222,2106,2457,1745190594066477048
43736528,1559,2266,2078,2481,1745190594066477048
43737528,1574,2318,2066,2490,1745190594066477048
43738529,1586,2378,2076,2486,1745190594066477048
43739529,1595,2435,2106,2474,1745190594066477048
43740529,1600,2485,2152,2449,1745190594066477048
43741529,1608,2523,2192,2422,1745190594066477048
43742529,1622,2544,2205,2402,1745190594066477048
43743529,1642,2547,2179,2390,1745190594066477048
43744529,1665,2539,2130,2389,1745190594066477048
43745529,1686,2518,2082,2390,1745190594066477048
43746529,1703,2491,2040,2387,1745190594066477048
43747529,1718,2458,2000,2374,1745190594066477048
43748529,1730,2425,1966,2345,1745190594066477048
43749529,1741,2397,1937,2302,1745190594066477048
43750530,1754,2378,1915,2258,1745190594066477048
43751530,1773,2368,1903,2228,1745190594066477048
43752530,1795,2363,1898,2219,1745190594119719530
43753530,1818,2363,1899,2224,1745190594119719530
43754530,1842,2371,1906,2236,1745190594119719530
43755530,1865,2387,1914,2255,1745190594119719530
43756530,1877,2416,1924,2267,1745190594119719530
43757530,1886,2460,1938,2278,1745190594119719530
43758530,1885,2513,1949,2291,1745190594119719530
43759530,1878,2559,1960,2309,1745190594119719530
43760530,1870,2603,1970,2334,1745190594119719530
43761530,1865,2639,1978,2341,1745190594119719530
43762531,1866,2662,1993,2363,1745190594119719530
43763531,1873,2671,2016,2376,1745190594119719530
43764532,1884,2667,2038,2376,1745190594119719530
43765531,1898,2653,2054,2358,1745190594119719530
43766531,1913,2628,2049,2334,1745190594119719530
43767531,1930,2594,2027,2310,1745190594119719530
43768531,1946,2559,1995,2281,1745190594119719530
43769531,1962,2534,1966,2240,1745190594119719530
43770531,1976,2509,1949,2197,1745190594119719530
43771531,1988,2490,1940,2163,1745190594119719530
43772531,1997,2484,1936,2157,1745190594119719530
43773531,2011,2484,1922,2173,1745190594119719530
43774532,2014,2496,1904,2203,1745190594119719530
43775532,2008,2523,1897,2242,1745190594119719530
43776532,1990,2559,1905,2281,1745190594119719530
43777532,1981,2619,1920,2317,1745190594119719530
43778532,1965,2688,1928,2344,1745190594119719530
43779532,1955,2753,1932,2363,1745190594119719530
43780532,1947,2810,1930,2364,1745190594119719530
43781532,1941,2860,1926,2353,1745190594119719530
43782532,1942,2896,1931,2345,1745190594119719530
43783532,1949,2915,1937,2354,1745190594119719530
43784532,1962,2918,1931,2389,1745190594119719530
43785532,1982,2907,1913,2442,1745190594119719530
43786533,2004,2884,1883,2503,1745190594119719530
43787533,2026,2857,1846,2555,1745190594119719530
43788533,2043,2826,1806,2572,1745190594119719530
43789533,2064,2802,1790,2578,1745190594119719530
43790533,2085,2782,1793,2562,1745190594119719530
43791533,2107,2769,1815,2529,1745190594119719530
43792533,2128,2764,1858,2465,1745190594119719530
43793533,2141,2766,1918,2393,1745190594119719530
43794533,2149,2778,1978,2337,1745190594119719530
43795533,2151,2797,2029,2316,1745190594119719530
43796533,2146,2825,2065,2324,1745190594119719530
43797533,2137,2859,2075,2350,1745190594119719530
43798534,2123,2898,2064,2375,1745190594119719530
43799534,2109,2930,2035,2394,1745190594119719530
43800534,2104,2955,1991,2403,1745190594119719530
43801534,2111,2967,1935,2408,1745190594119719530
43802534,2130,2961,1874,2418,1745190594119719530
43803534,2161,2934,1818,2434,1745190594119719530
43804534,2196,2896,1774,2445,1745190594119719530
43805534,2230,2845,1750,2443,1745190594119719530
43806534,2264,2788,1747,2422,1745190594119719530
43807534,2285,2725,1764,2385,1745190594119719530
43808534,2298,2660,1789,2338,1745190594119719530
43809534,2304,2600,1822,2292,1745190594119719530
43810535,2301,2557,1858,2252,1745190594179125706
43811535,2291,2523,1896,2222,1745190594179125706
43812535,2278,2501,1926,2206,1745190594179125706
43813535,2270,2491,1946,2197,1745190594179125706
43814535,2272,2493,1959,2200,1745190594179125706
43815535,2281,2507,1965,2214,1745190594179125706
43816535,2290,2536,1962,2240,1745190594179125706
43817535,2300,2573,1956,2268,1745190594179125706
43818535,2308,2628,1945,2299,1745190594179125706
43819535,2314,2682,1934,2328,1745190594179125706
43820535,2320,2730,1921,2354,1745190594179125706
43821536,2329,2766,1908,2376,1745190594179125706
43822537,2345,2795,1897,2394,1745190594179125706
43823536,2361,2808,1889,2402,1745190594179125706
43824536,2394,2809,1879,2395,1745190594179125706
43825536,2393,2798,1873,2372,1745190594179125706
43826536,2410,2785,1865,2330,1745190594179125706
43827536,2421,2761,1859,2285,1745190594179125706
43828536,2432,2745,1852,2241,1745190594179125706
43829536,2449,2728,1846,2212,1745190594179125706
43830536,2434,2714,1843,2208,1745190594179125706
43831536,2426,2707,1846,2229,1745190594179125706
43832536,2414,2710,1858,2267,1745190594179125706
43833536,2400,2722,1875,2313,1745190594179125706
43834537,2384,2744,1903,2357,1745190594179125706
43835537,2369,2776,1937,2403,1745190594179125706
43836537,2349,2823,1965,2456,1745190594179125706
43837537,2325,2878,1972,2504,1745190594179125706
43838537,2298,2949,1959,2541,1745190594179125706
43839537,2269,3013,1945,2559,1745190594179125706
43840537,2240,3073,1944,2564,1745190594179125706
43841537,2217,3121,1941,2573,1745190594179125706
43842537,2205,3156,1921,2579,1745190594179125706
43843537,2205,3172,1881,2580,1745190594179125706
43844537,2218,3171,1833,2572,1745190594179125706
43845537,2235,3154,1792,2556,1745190594179125706
43846538,2257,3122,1762,2515,1745190594179125706
43847538,2278,3085,1749,2466,1745190594179125706
43848538,2307,3042,1752,2421,1745190594179125706
43849538,2321,3004,1763,2390,1745190594179125706
43850538,2338,2972,1776,2373,1745190594179125706
43851538,2350,2947,1796,2362,1745190594179125706
43852538,2347,2931,1824,2356,1745190594179125706
43853538,2356,2922,1851,2354,1745190594179125706
43854538,2358,2921,1865,2360,1745190594179125706
43855538,2356,2929,1864,2371,1745190594179125706
43856538,2352,2949,1856,2382,1745190594179125706
43857538,2342,2979,1838,2403,1745190594179125706
43858539,2332,3010,1809,2426,1745190594179125706
43859539,2321,3046,1776,2446,1745190594179125706
43860539,2311,3072,1745,2449,1745190594179125706
43861539,2304,3082,1729,2435,1745190594179125706
43862539,2303,3073,1730,2403,1745190594179125706
43863539,2308,3048,1743,2360,1745190594179125706
43864539,2316,3008,1749,2315,1745190594179125706
43865539,2331,2958,1736,2281,1745190594179125706
43866539,2347,2902,1714,2258,1745190594179125706
43867539,2363,2841,1700,2241,1745190594179125706
43868539,2378,2778,1712,2228,1745190594240933735
43869539,2390,2734,1758,2214,1745190594240933735
43870540,2401,2688,1836,2199,1745190594240933735
43871540,2406,2650,1929,2180,1745190594240933735
43872540,2409,2622,1970,2156,1745190594240933735
43873540,2405,2600,1994,2126,1745190594240933735
43874540,2396,2586,1973,2102,1745190594240933735
43875540,2385,2586,1933,2085,1745190594240933735
43876540,2368,2605,1894,2077,1745190594240933735
43877540,2345,2642,1870,2080,1745190594240933735
43878540,2321,2690,1860,2094,1745190594240933735
43879540,2299,2743,1857,2121,1745190594240933735
43880542,2281,2796,1852,2160,1745190594240933735
43881541,2267,2833,1839,2217,1745190594240933735
43882541,2256,2859,1841,2282,1745190594240933735
43883541,2248,2867,1840,2338,1745190594240933735
43884541,2239,2854,1830,2374,1745190594240933735
43885541,2244,2832,1821,2389,1745190594240933735
43886541,2252,2794,1808,2378,1745190594240933735
43887541,2268,2751,1794,2345,1745190594240933735
43888541,2290,2706,1778,2291,1745190594240933735
43889541,2318,2670,1761,2250,1745190594240933735
43890541,2348,2641,1745,2216,1745190594240933735
43891541,2373,2624,1738,2203,1745190594240933735
43892541,2390,2613,1740,2212,1745190594240933735
43893541,2396,2609,1755,2233,1745190594240933735
43894542,2396,2609,1774,2267,1745190594240933735
43895542,2396,2617,1788,2308,1745190594240933735
43896542,2394,2631,1794,2352,1745190594240933735
43897542,2389,2660,1802,2376,1745190594240933735
43898542,2384,2698,1811,2365,1745190594240933735
43899542,2373,2735,1822,2321,1745190594240933735
43900542,2354,2768,1834,2265,1745190594240933735
43901542,2325,2788,1851,2220,1745190594240933735
43902542,2288,2795,1854,2200,1745190594240933735
43903542,2254,2786,1835,2196,1745190594240933735
43904542,2231,2764,1788,2201,1745190594240933735
43905542,2221,2730,1739,2200,1745190594240933735
43906543,2221,2690,1708,2178,1745190594240933735
43907543,2230,2643,1702,2146,1745190594240933735
43908543,2248,2594,1709,2116,1745190594240933735
43909543,2272,2556,1722,2096,1745190594240933735
43910543,2300,2515,1738,2094,1745190594240933735
43911543,2329,2480,1755,2110,1745190594240933735
43912543,2357,2452,1784,2128,1745190594240933735
43913543,2384,2432,1817,2132,1745190594240933735
43914543,2402,2420,1853,2114,1745190594240933735
43915543,2413,2419,1883,2089,1745190594240933735
43916543,2418,2433,1901,2069,1745190594240933735
43917543,2419,2459,1911,2060,1745190594240933735
43918544,2413,2496,1909,2064,1745190594240933735
43919544,2404,2531,1898,2076,1745190594240933735
43920544,2394,2559,1884,2098,1745190594240933735
43921544,2386,2572,1866,2116,1745190594240933735
43922544,2381,2571,1846,2130,1745190594240933735
43923544,2382,2559,1828,2131,1745190594240933735
43924544,2388,2518,1812,2123,1745190594240933735
43925544,2395,2463,1796,2098,1745190594240933735
43926544,2407,2397,1785,2057,1745190594302453225
43927544,2421,2331,1782,2014,1745190594302453225
43928544,2433,2268,1788,1987,1745190594302453225
43929544,2442,2210,1793,1975,1745190594302453225
43930545,2449,2161,1795,1973,1745190594302453225
43931545,2450,2118,1794,1978,1745190594302453225
43932545,2449,2100,1801,1989,1745190594302453225
43933545,2444,2084,1818,2008,1745190594302453225
43934545,2435,2080,1837,2037,1745190594302453225
43935545,2421,2088,1856,2080,1745190594302453225
43936545,2401,2112,1869,2126,1745190594302453225
43937545,2378,2148,1873,2163,1745190594302453225
43938545,2350,2193,1865,2179,1745190594302453225
43939545,2320,2238,1857,2178,1745190594302453225
43940546,2299,2274,1842,2176,1745190594302453225
43941545,2281,2304,1818,2181,1745190594302453225
43942546,2268,2315,1785,2192,1745190594302453225
43943546,2265,2310,1756,2205,1745190594302453225
43944546,2265,2289,1747,2201,1745190594302453225
43945546,2269,2260,1774,2166,1745190594302453225
43946546,2273,2217,1827,2107,1745190594302453225
43947546,2282,2176,1915,2034,1745190594302453225
43948546,2293,2128,1977,1968,1745190594302453225
43949546,2300,2082,2013,1921,1745190594302453225
43950546,2303,2038,2017,1892,1745190594302453225
43951546,2304,2006,2008,1891,1745190594302453225
43952546,2303,1980,1982,1900,1745190594302453225
43953546,2301,1964,1953,1916,1745190594302453225
43954547,2293,1961,1928,1938,1745190594302453225
43955547,2276,1973,1914,1968,1745190594302453225
43956547,2252,2003,1916,2001,1745190594302453225
43957547,2224,2050,1931,2037,1745190594302453225
43958547,2196,2098,1944,2073,1745190594302453225
43959547,2178,2145,1954,2099,1745190594302453225
43960547,2171,2185,1953,2112,1745190594302453225
43961547,2178,2212,1941,2104,1745190594302453225
43962547,2192,2224,1931,2080,1745190594302453225
43963547,2211,2219,1928,2041,1745190594302453225
43964547,2230,2201,1933,2006,1745190594302453225
43965547,2251,2170,1933,1977,1745190594302453225
43966548,2270,2130,1923,1954,1745190594302453225
43967548,2288,2084,1904,1944,1745190594302453225
43968548,2300,2038,1888,1945,1745190594302453225
43969548,2305,1997,1880,1960,1745190594302453225
43970548,2304,1965,1877,1986,1745190594302453225
43971548,2299,1942,1881,2019,1745190594302453225
43972548,2290,1929,1886,2053,1745190594302453225
43973548,2278,1922,1896,2073,1745190594302453225
43974548,2265,1926,1917,2075,1745190594302453225
43975548,2252,1940,1946,2061,1745190594302453225
43976548,2234,1973,1964,2030,1745190594302453225
43977548,2213,2021,1968,1996,1745190594302453225
43978549,2186,2082,1962,1976,1745190594302453225
43979549,2158,2144,1961,1988,1745190594302453225
43980549,2136,2198,1974,2026,1745190594302453225
43981549,2120,2242,2003,2072,1745190594302453225
43982549,2112,2269,2041,2107,1745190594302453225
43983549,2110,2278,2081,2121,1745190594302453225
43984549,2114,2270,2109,2108,1745190594352932764
43985549,2122,2250,2118,2085,1745190594352932764
43986549,2137,2219,2096,2059,1745190594352932764
43987549,2153,2181,2048,2035,1745190594352932764
43988549,2174,2142,1988,2026,1745190594352932764
43989549,2197,2107,1932,2006,1745190594352932764
43990550,2214,2077,1887,1993,1745190594352932764
43991550,2225,2056,1881,1974,1745190594352932764
43992550,2228,2041,1909,1955,1745190594352932764
43993550,2229,2036,1952,1936,1745190594352932764
43994550,2232,2041,1984,1928,1745190594352932764
43995550,2232,2060,2006,1938,1745190594352932764
43996550,2228,2089,2018,1970,1745190594352932764
43997550,2218,2132,2017,2009,1745190594352932764
43998550,2202,2189,2013,2044,1745190594352932764
43999550,2185,2244,2022,2066,1745190594352932764
44000550,2166,2294,2042,2057,1745190594352932764
44001550,2155,2332,2067,2008,1745190594352932764
44002551,2150,2352,2081,1934,1745190594352932764
44003551,2157,2355,2078,1861,1745190594352932764
44004551,2164,2342,2058,1806,1745190594352932764
44005551,2174,2317,2025,1780,1745190594352932764
44006551,2182,2281,1988,1780,1745190594352932764
44007551,2194,2237,1956,1805,1745190594352932764
44008551,2200,2197,1938,1861,1745190594352932764
44009551,2212,2160,1926,1937,1745190594352932764
44010551,2220,2132,1918,2014,1745190594352932764
44011551,2222,2116,1910,2079,1745190594352932764
44012551,2218,2110,1901,2115,1745190594352932764
44013551,2214,2096,1900,2131,1745190594352932764
44014552,2207,2117,1921,2129,1745190594352932764
44015552,2193,2133,1957,2109,1745190594352932764
44016552,2171,2166,2010,2091,1745190594352932764
44017552,2144,2213,2076,2085,1745190594352932764
44018552,2117,2264,2124,2099,1745190594352932764
44019552,2093,2315,2153,2126,1745190594352932764
44020552,2075,2359,2164,2154,1745190594352932764
44021552,2065,2392,2162,2171,1745190594352932764
44022552,2063,2408,2144,2168,1745190594352932764
44023552,2072,2405,2132,2148,1745190594352932764
44024552,2080,2387,2105,2122,1745190594352932764
44025552,2097,2354,2079,2100,1745190594352932764
44026553,2116,2314,2049,2085,1745190594352932764
44027553,2135,2267,2022,2073,1745190594352932764
44028553,2150,2220,2008,2065,1745190594352932764
44029553,2164,2177,1998,2058,1745190594352932764
44030553,2176,2137,1993,2042,1745190594352932764
44031553,2184,2108,1985,2027,1745190594352932764
44032553,2186,2088,1974,2024,1745190594352932764
44033553,2184,2076,1958,2035,1745190594352932764
44034553,2177,2074,1933,2052,1745190594352932764
44035553,2165,2083,1909,2065,1745190594352932764
44036553,2149,2108,1867,2073,1745190594352932764
44037553,2132,2147,1845,2075,1745190594352932764
44038554,2109,2192,1853,2067,1745190594352932764
44039554,2084,2238,1893,2056,1745190594352932764
44040554,2060,2278,1954,2035,1745190594352932764
44041554,2036,2306,2020,2000,1745190594352932764
44042554,2020,2318,2078,1952,1745190594412108942
44043554,2014,2309,2113,1900,1745190594412108942
44044554,2013,2284,2124,1860,1745190594412108942
44045554,2020,2244,2119,1836,1745190594412108942
44046554,2030,2198,2103,1833,1745190594412108942
44047554,2048,2144,2085,1837,1745190594412108942
44048554,2066,2096,2069,1845,1745190594412108942
44049554,2086,2050,2059,1862,1745190594412108942
44050555,2107,2009,2048,1876,1745190594412108942
44051555,2125,1977,2034,1876,1745190594412108942
44052555,2142,1953,2018,1864,1745190594412108942
44053555,2154,1949,2003,1845,1745190594412108942
44054555,2159,1933,1987,1830,1745190594412108942
44055555,2156,1941,1977,1826,1745190594412108942
44056555,2142,1965,1977,1828,1745190594412108942
44057555,2122,2013,1996,1850,1745190594412108942
44058555,2092,2066,2021,1861,1745190594412108942
44059555,2064,2124,2054,1893,1745190594412108942
44060555,2034,2178,2083,1941,1745190594412108942
44061555,2010,2211,2104,2008,1745190594412108942
44062556,1992,2241,2109,2084,1745190594412108942
44063556,1983,2224,2098,2161,1745190594412108942
44064556,1984,2203,2085,2225,1745190594412108942
44065556,1991,2171,2083,2254,1745190594412108942
44066556,2000,2131,2094,2236,1745190594412108942
44067556,2005,2088,2112,2184,1745190594412108942
44068556,2006,2040,2122,2116,1745190594412108942
44069556,2005,2000,2121,2050,1745190594412108942
44070556,2003,1965,2106,1997,1745190594412108942
44071556,2005,1936,2082,1973,1745190594412108942
44072556,2016,1915,2059,1973,1745190594412108942
44073556,2033,1906,2038,1989,1745190594412108942
44074557,2057,1905,2022,2014,1745190594412108942
44075557,2076,1920,2013,2042,1745190594412108942
44076557,2085,1950,2006,2061,1745190594412108942
44077557,2083,1991,2000,2061,1745190594412108942
44078557,2070,2040,1996,2053,1745190594412108942
44079557,2051,2088,1992,2052,1745190594412108942
44080557,2027,2128,1990,2058,1745190594412108942
44081557,2012,2156,1990,2068,1745190594412108942
44082557,2006,2166,1995,2081,1745190594412108942
44083557,2010,2157,2003,2091,1745190594412108942
44084557,2025,2133,2011,2096,1745190594412108942
44085557,2048,2096,2011,2103,1745190594412108942
44086558,2068,2049,1995,2109,1745190594412108942
44087558,2091,1997,1962,2104,1745190594412108942
44088558,2110,1949,1925,2094,1745190594412108942
44089558,2125,1903,1893,2082,1745190594412108942
44090558,2134,1872,1880,2065,1745190594412108942
44091558,2140,1849,1897,2035,1745190594412108942
44092558,2141,1834,1945,1998,1745190594412108942
44093558,2136,1826,2004,1963,1745190594412108942
44094558,2125,1830,2058,1930,1745190594412108942
44095558,2109,1846,2093,1902,1745190594412108942
44096558,2088,1880,2114,1888,1745190594412108942
44097558,2067,1928,2127,1889,1745190594412108942
44098559,2042,1981,2134,1900,1745190594412108942
44099559,2024,2033,2140,1918,1745190594412108942
44100559,2009,2080,2141,1938,1745190594474293478
44101559,2000,2110,2141,1957,1745190594474293478
44102559,1998,2125,2128,1965,1745190594474293478
44103559,2003,2120,2112,1966,1745190594474293478
44104559,2011,2099,2094,1966,1745190594474293478
44105559,2022,2063,2078,1967,1745190594474293478
44106559,2037,2022,2059,1959,1745190594474293478
44107559,2054,1976,2037,1948,1745190594474293478
44108559,2069,1929,2026,1938,1745190594474293478
44109559,2085,1885,2024,1921,1745190594474293478
44110560,2100,1848,2032,1899,1745190594474293478
44111560,2111,1825,2053,1867,1745190594474293478
44112560,2114,1811,2082,1852,1745190594474293478
44113560,2110,1807,2107,1835,1745190594474293478
44114560,2106,1817,2120,1827,1745190594474293478
44115560,2099,1841,2113,1837,1745190594474293478
44116560,2089,1875,2084,1859,1745190594474293478
44117560,2073,1924,2054,1893,1745190594474293478
44118560,2058,1978,2032,1930,1745190594474293478
44119560,2038,2028,2030,1966,1745190594474293478
44120560,2022,2070,2036,1995,1745190594474293478
44121560,2010,2098,2048,2027,1745190594474293478
44122561,1997,2108,2050,2067,1745190594474293478
44123561,2002,2098,2048,2113,1745190594474293478
44124561,2001,2074,2043,2152,1745190594474293478
44125561,1998,2041,2037,2176,1745190594474293478
44126561,1998,2000,2041,2171,1745190594474293478
44127561,2001,1955,2066,2147,1745190594474293478
44128561,2006,1908,2108,2101,1745190594474293478
44129561,2014,1867,2160,2045,1745190594474293478
44130561,2025,1833,2200,1997,1745190594474293478
44131561,2035,1807,2212,1970,1745190594474293478
44132561,2044,1788,2197,1966,1745190594474293478
44133561,2055,1777,2160,1979,1745190594474293478
44134562,2058,1774,2129,1993,1745190594474293478
44135562,2053,1784,2100,2003,1745190594474293478
44136562,2041,1811,2076,2013,1745190594474293478
44137562,2025,1850,2050,2030,1745190594474293478
44138562,2008,1896,2040,2057,1745190594474293478
44139562,1993,1942,2056,2085,1745190594474293478
44140562,1982,1981,2091,2106,1745190594474293478
44141562,1976,2010,2126,2113,1745190594474293478
44142562,1977,2022,2140,2097,1745190594474293478
44143562,1981,2019,2126,2066,1745190594474293478
44144562,1992,1998,2101,2024,1745190594474293478
44145562,2008,1965,2080,1992,1745190594474293478
44146563,2025,1923,2070,1976,1745190594474293478
44147563,2049,1873,2072,1962,1745190594474293478
44148563,2070,1821,2090,1945,1745190594474293478
44149563,2086,1771,2117,1920,1745190594474293478
44150563,2096,1725,2146,1896,1745190594474293478
44151563,2101,1690,2161,1879,1745190594474293478
44152563,2100,1660,2155,1874,1745190594474293478
44153563,2091,1641,2132,1881,1745190594474293478
44154563,2075,1632,2101,1883,1745190594474293478
44155563,2057,1638,2066,1867,1745190594474293478
44156563,2030,1662,2037,1842,1745190594474293478
44157563,2005,1699,2020,1818,1745190594474293478
44158564,1981,1747,2015,1806,1745190594526587115
44159564,1964,1793,2018,1812,1745190594526587115
44160564,1953,1831,2021,1836,1745190594526587115
44161564,1949,1856,2026,1868,1745190594526587115
44162564,1953,1867,2032,1894,1745190594526587115
44163564,1963,1860,2041,1913,1745190594526587115
44164564,1976,1838,2051,1922,1745190594526587115
44165564,1989,1805,2061,1922,1745190594526587115
44166564,2002,1763,2069,1913,1745190594526587115
44167564,2017,1716,2075,1907,1745190594526587115
44168564,2029,1678,2076,1905,1745190594526587115
44169564,2038,1632,2074,1904,1745190594526587115
44170565,2048,1598,2069,1905,1745190594526587115
44171565,2049,1576,2066,1907,1745190594526587115
44172565,2050,1563,2065,1907,1745190594526587115
44173566,2043,1554,2069,1906,1745190594526587115
44174565,2032,1557,2095,1910,1745190594526587115
44175565,2011,1572,2126,1917,1745190594526587115
44176565,1985,1605,2144,1923,1745190594526587115
44177565,1957,1651,2182,1910,1745190594526587115
44178565,1932,1705,2207,1875,1745190594526587115
44179565,1914,1756,2205,1845,1745190594526587115
44180565,1909,1802,2187,1813,1745190594526587115
44181565,1910,1834,2158,1788,1745190594526587115
44182566,1917,1852,2137,1791,1745190594526587115
44183566,1929,1853,2124,1827,1745190594526587115
44184566,1940,1842,2117,1903,1745190594526587115
44185566,1963,1821,2120,1986,1745190594526587115
44186566,1976,1789,2137,2052,1745190594526587115
44187566,1990,1756,2161,2086,1745190594526587115
44188566,1998,1724,2187,2092,1745190594526587115
44189566,2005,1691,2208,2075,1745190594526587115
44190566,2006,1666,2221,2044,1745190594526587115
44191566,2002,1646,2220,2019,1745190594526587115
44192566,2006,1632,2208,2004,1745190594526587115
44193566,2002,1626,2187,1997,1745190594526587115
44194567,1996,1630,2166,1994,1745190594526587115
44195567,1985,1650,2155,1988,1745190594526587115
44196567,1967,1690,2149,1994,1745190594526587115
44197567,1943,1746,2149,2012,1745190594526587115
44198568,1921,1813,2147,2032,1745190594526587115
44199568,1897,1883,2139,2058,1745190594526587115
44200567,1877,1946,2125,2071,1745190594526587115
44201568,1860,1998,2114,2077,1745190594526587115
44202567,1851,2028,2109,2082,1745190594526587115
44203567,1851,2043,2108,2095,1745190594526587115
44204567,1857,2038,2109,2113,1745190594526587115
44205567,1870,2019,2114,2126,1745190594526587115
44206568,1888,1989,2122,2129,1745190594526587115
44207568,1908,1955,2134,2116,1745190594526587115
44208568,1925,1921,2155,2089,1745190594526587115
44209568,1939,1893,2179,2051,1745190594526587115
44210568,1949,1873,2194,2008,1745190594526587115
44211568,1954,1864,2193,1961,1745190594526587115
44212568,1955,1864,2186,1901,1745190594526587115
44213568,1953,1871,2177,1867,1745190594526587115
44214568,1949,1886,2172,1838,1745190594526587115
44215568,1944,1912,2180,1836,1745190594526587115
44216568,1936,1953,2186,1853,1745190594587301040
44217568,1925,2004,2192,1887,1745190594587301040
44218569,1908,2064,2184,1931,1745190594587301040
44219569,1893,2122,2162,1984,1745190594587301040
44220569,1881,2173,2133,2041,1745190594587301040
44221569,1872,2217,2109,2098,1745190594587301040
44222569,1868,2241,2097,2143,1745190594587301040
44223569,1871,2249,2099,2177,1745190594587301040
44224569,1881,2240,2108,2192,1745190594587301040
44225569,1894,2216,2117,2189,1745190594587301040
44226569,1912,2182,2123,2174,1745190594587301040
44227569,1934,2141,2125,2153,1745190594587301040
44228569,1954,2100,2131,2128,1745190594587301040
44229569,1972,2063,2131,2108,1745190594587301040
44230570,1987,2029,2126,2096,1745190594587301040
44231570,2001,2005,2113,2076,1745190594587301040
44232570,2009,1986,2091,2035,1745190594587301040
44233570,2019,1980,2063,1979,1745190594587301040
44234570,2024,1981,2031,1931,1745190594587301040
44235570,2024,1994,2005,1917,1745190594587301040
44236570,2028,2024,1996,1947,1745190594587301040
44237570,2003,2072,2009,2009,1745190594587301040
44238570,1980,2132,2041,2102,1745190594587301040
44239570,1956,2196,2083,2197,1745190594587301040
44240570,1932,2257,2114,2267,1745190594587301040
44241570,1911,2300,2124,2284,1745190594587301040
44242571,1901,2321,2118,2242,1745190594587301040
44243571,1901,2321,2109,2145,1745190594587301040
44244571,1910,2304,2091,2020,1745190594587301040
44245571,1928,2272,2073,1922,1745190594587301040
44246571,1948,2228,2061,1880,1745190594587301040
44247571,1974,2179,2058,1905,1745190594587301040
44248571,1997,2129,2062,1984,1745190594587301040
44249571,2017,2082,2073,2088,1745190594587301040
44250571,2033,2043,2097,2185,1745190594587301040
44251571,2049,2014,2121,2250,1745190594587301040
44252571,2057,1994,2133,2268,1745190594587301040
44253571,2060,1985,2128,2237,1745190594587301040
44254572,2060,1986,2115,2185,1745190594587301040
44255572,2056,2003,2098,2139,1745190594587301040
44256572,2042,2038,2092,2124,1745190594587301040
44257572,2030,2093,2073,2147,1745190594587301040
44258572,2013,2152,2070,2194,1745190594587301040
44259572,1995,2210,2064,2244,1745190594587301040
44260572,1979,2265,2056,2289,1745190594587301040
44261572,1969,2306,2043,2318,1745190594587301040
44262572,1964,2328,2028,2328,1745190594587301040
44263572,1966,2330,2008,2324,1745190594587301040
44264572,1977,2314,1986,2300,1745190594587301040
44265572,1994,2282,1970,2244,1745190594587301040
44266573,2015,2240,1968,2151,1745190594587301040
44267573,2037,2190,1976,2053,1745190594587301040
44268573,2060,2140,1989,1979,1745190594587301040
44269573,2079,2094,2001,1943,1745190594587301040
44270573,2094,2053,2009,1955,1745190594587301040
44271573,2108,2019,2012,2012,1745190594587301040
44272573,2116,1997,2019,2064,1745190594587301040
44273573,2117,1989,2027,2118,1745190594587301040
44274573,2116,1994,2033,2152,1745190594654102825
44275573,2110,2014,2031,2176,1745190594654102825
44276573,2100,2053,2024,2193,1745190594654102825
44277573,2086,2103,2011,2221,1745190594654102825
44278574,2067,2163,1999,2256,1745190594654102825
44279574,2051,2221,1984,2290,1745190594654102825
44280574,2032,2276,1975,2298,1745190594654102825
44281574,2019,2313,1977,2275,1745190594654102825
44282574,2011,2333,1988,2236,1745190594654102825
44283574,2016,2334,2012,2198,1745190594654102825
44284574,2027,2313,2054,2173,1745190594654102825
44285574,2048,2274,2093,2160,1745190594654102825
44286574,2068,2224,2137,2146,1745190594654102825
44287575,2096,2164,2161,2119,1745190594654102825
44288574,2115,2107,2161,2041,1745190594654102825
44289574,2136,2069,2138,1905,1745190594654102825
44290575,2152,2013,2107,1746,1745190594654102825
44291575,2166,1982,2076,1590,1745190594654102825
44292575,2171,1971,2049,1493,1745190594654102825
44293575,2179,1949,2027,1464,1745190594654102825
44294575,2181,1945,2013,1524,1745190594654102825
44295575,2171,1956,2011,1653,1745190594654102825
44296575,2158,1990,2020,1834,1745190594654102825
44297575,2130,2042,2036,2013,1745190594654102825
44298575,2114,2112,2056,2166,1745190594654102825
44299575,2089,2184,2072,2286,1745190594654102825
44300575,2068,2247,2079,2369,1745190594654102825
44301575,2053,2293,2075,2415,1745190594654102825
44302576,2042,2317,2059,2421,1745190594654102825
44303576,2043,2319,2032,2398,1745190594654102825
44304576,2052,2304,2009,2357,1745190594654102825
44305576,2064,2275,1995,2297,1745190594654102825
44306576,2079,2237,1990,2225,1745190594654102825
44307576,2094,2195,1994,2152,1745190594654102825
44308576,2110,2153,2005,2094,1745190594654102825
44309576,2125,2119,2022,2064,1745190594654102825
44310576,2134,2094,2033,2065,1745190594654102825
44311576,2140,2078,2042,2088,1745190594654102825
44312576,2141,2073,2060,2117,1745190594654102825
44313576,2139,2077,2076,2133,1745190594654102825
44314577,2134,2090,2088,2136,1745190594654102825
44315577,2128,2114,2089,2131,1745190594654102825
44316577,2116,2153,2084,2129,1745190594654102825
44317577,2100,2206,2082,2133,1745190594654102825
44318577,2077,2265,2085,2137,1745190594654102825
44319577,2059,2321,2085,2141,1745190594654102825
44320577,2039,2369,2084,2149,1745190594654102825
44321577,2026,2403,2081,2162,1745190594654102825
44322577,2019,2419,2077,2176,1745190594654102825
44323577,2021,2418,2071,2187,1745190594654102825
44324577,2032,2397,2062,2192,1745190594654102825
44325577,2048,2361,2055,2179,1745190594654102825
44326578,2069,2312,2043,2158,1745190594654102825
44327578,2094,2256,2032,2142,1745190594654102825
44328578,2115,2196,2024,2133,1745190594654102825
44329578,2133,2137,2016,2130,1745190594654102825
44330578,2151,2086,2008,2125,1745190594654102825
44331578,2161,2043,1998,2109,1745190594654102825
44332578,2168,2014,1992,2070,1745190594702234834
44333578,2170,1999,1981,2017,1745190594702234834
44334578,2168,1997,1970,1979,1745190594702234834
44335578,2159,2011,1964,1960,1745190594702234834
44336578,2145,2043,1964,1962,1745190594702234834
44337578,2130,2092,1970,1964,1745190594702234834
44338579,2107,2147,1984,1958,1745190594702234834
44339579,2085,2205,1996,1939,1745190594702234834
44340579,2065,2256,2005,1918,1745190594702234834
44341579,2049,2297,2018,1907,1745190594702234834
44342579,2035,2316,2031,1931,1745190594702234834
44343579,2034,2314,2044,1991,1745190594702234834
44344579,2038,2296,2052,2075,1745190594702234834
44345579,2050,2261,2048,2157,1745190594702234834
44346579,2064,2218,2026,2216,1745190594702234834
44347579,2083,2166,2002,2246,1745190594702234834
44348579,2097,2114,1979,2259,1745190594702234834
44349581,2113,2065,1959,2237,1745190594702234834
44350580,2128,2017,1944,2173,1745190594702234834
44351580,2138,1980,1927,2074,1745190594702234834
44352580,2141,1952,1904,1967,1745190594702234834
44353581,2141,1935,1880,1880,1745190594702234834
44354580,2133,1929,1872,1822,1745190594702234834
44355580,2121,1941,1886,1810,1745190594702234834
44356580,2098,1973,1933,1829,1745190594702234834
44357580,2075,2023,1994,1864,1745190594702234834
44358580,2049,2074,2060,1883,1745190594702234834
44359580,2029,2126,2076,1856,1745190594702234834
44360580,2006,2170,2091,1788,1745190594702234834
44361580,1994,2196,2085,1718,1745190594702234834
44362581,1986,2208,2066,1676,1745190594702234834
44363581,1984,2202,2049,1655,1745190594702234834
44364581,1989,2178,2003,1637,1745190594702234834
44365581,1999,2144,1978,1650,1745190594702234834
44366581,2014,2096,1972,1710,1745190594702234834
44367581,2034,2041,1985,1811,1745190594702234834
44368581,2054,1985,2016,1931,1745190594702234834
44369581,2070,1937,2049,2055,1745190594702234834
44370581,2082,1892,2066,2154,1745190594702234834
44371581,2089,1861,2074,2219,1745190594702234834
44372581,2093,1838,2069,2235,1745190594702234834
44373581,2093,1824,2068,2210,1745190594702234834
44374582,2088,1821,2062,2169,1745190594702234834
44375582,2076,1833,2051,2128,1745190594702234834
44376582,2058,1859,2061,2107,1745190594702234834
44377582,2034,1900,2067,2127,1745190594702234834
44378582,2011,1951,2076,2173,1745190594702234834
44379582,1989,2001,2083,2214,1745190594702234834
44380582,1973,2044,2083,2213,1745190594702234834
44381582,1962,2076,2083,2177,1745190594702234834
44382582,1955,2086,2082,2139,1745190594702234834
44383582,1958,2080,2089,2136,1745190594702234834
44384582,1968,2057,2091,2164,1745190594702234834
44385582,1984,2017,2089,2208,1745190594702234834
44386583,2002,1965,2080,2257,1745190594702234834
44387583,2022,1909,2073,2289,1745190594702234834
44388583,2042,1854,2068,2277,1745190594702234834
44389583,2058,1805,2062,2211,1745190594702234834
44390583,2070,1766,2056,2117,1745190594762497617
44391583,2077,1734,2054,2022,1745190594762497617
44392583,2081,1710,2057,1950,1745190594762497617
44393583,2082,1690,2058,1905,1745190594762497617
44394583,2081,1682,2056,1876,1745190594762497617
44395583,2077,1687,2052,1859,1745190594762497617
44396583,2066,1709,2054,1861,1745190594762497617
44397583,2048,1753,2065,1888,1745190594762497617
44398584,2024,1805,2083,1937,1745190594762497617
44399584,2001,1865,2105,1994,1745190594762497617
44400584,1981,1916,2125,2057,1745190594762497617
44401584,1968,1957,2139,2122,1745190594762497617
44402584,1962,1977,2147,2170,1745190594762497617
44403584,1963,1978,2149,2206,1745190594762497617
44404584,1972,1964,2145,2221,1745190594762497617
44405584,1986,1934,2136,2225,1745190594762497617
44406584,2005,1893,2123,2222,1745190594762497617
44407584,2021,1844,2115,2202,1745190594762497617
44408584,2043,1803,2121,2169,1745190594762497617
44409584,2062,1764,2126,2111,1745190594762497617
44410585,2074,1732,2117,2041,1745190594762497617
44411585,2083,1708,2083,1967,1745190594762497617
44412585,2088,1689,2027,1926,1745190594762497617
44413585,2091,1681,1968,1897,1745190594762497617
44414585,2091,1682,1923,1880,1745190594762497617
44415585,2088,1696,1902,1867,1745190594762497617
44416585,2080,1725,1907,1841,1745190594762497617
44417585,2065,1769,1930,1768,1745190594762497617
44418585,2045,1821,1962,1634,1745190594762497617
44419585,2030,1873,1993,1477,1745190594762497617
44420585,2016,1916,2005,1337,1745190594762497617
44421585,2006,1950,1997,1272,1745190594762497617
44422586,1998,1971,1987,1322,1745190594762497617
44423586,1995,1978,1989,1496,1745190594762497617
44424586,1993,1976,2020,1724,1745190594762497617
44425586,1998,1962,2062,1950,1745190594762497617
44426586,2011,1937,2097,2117,1745190594762497617
44427586,2028,1901,2116,2212,1745190594762497617
44428586,2049,1862,2125,2249,1745190594762497617
44429586,2064,1827,2122,2233,1745190594762497617
44430586,2075,1800,2125,2171,1745190594762497617
44431586,2082,1784,2109,2070,1745190594762497617
44432586,2082,1773,2104,1955,1745190594762497617
44433586,2081,1773,2099,1868,1745190594762497617
44434587,2075,1780,2091,1838,1745190594762497617
44435587,2066,1800,2082,1881,1745190594762497617
44436587,2054,1830,2073,1971,1745190594762497617
44437587,2042,1872,2058,2076,1745190594762497617
44438587,2021,1915,2042,2114,1745190594762497617
44439587,2004,1952,2032,2051,1745190594762497617
44440587,1987,1986,2030,1929,1745190594762497617
44441587,1974,2013,2036,1822,1745190594762497617
44442587,1966,2032,2054,1780,1745190594762497617
44443587,1962,2044,2079,1806,1745190594762497617
44444587,1966,2052,2108,1900,1745190594762497617
44445587,1972,2042,2139,2041,1745190594762497617
44446588,1984,2020,2163,2182,1745190594762497617
44447588,1999,1982,2177,2280,1745190594762497617
44448588,2012,1928,2179,2323,1745190594819177203
44449588,2023,1858,2165,2322,1745190594819177203
44450588,2036,1794,2145,2309,1745190594819177203
44451588,2034,1754,2128,2305,1745190594819177203
44452588,2033,1750,2116,2312,1745190594819177203
44453588,2028,1790,2110,2312,1745190594819177203
44454588,2022,1849,2117,2299,1745190594819177203
44455588,2013,1901,2137,2276,1745190594819177203
44456588,2001,1935,2161,2257,1745190594819177203
44457588,1985,1957,2184,2250,1745190594819177203
44458589,1964,1973,2198,2248,1745190594819177203
44459589,1944,1987,2202,2235,1745190594819177203
44460589,1924,1999,2196,2209,1745190594819177203
44461589,1910,2018,2186,2181,1745190594819177203
44462589,1903,2029,2163,2148,1745190594819177203
44463589,1906,2021,2146,2134,1745190594819177203
44464589,1916,2004,2125,2129,1745190594819177203
44465589,1933,2002,2110,2140,1745190594819177203
44466589,1950,2006,2106,2162,1745190594819177203
44467589,1969,1997,2114,2171,1745190594819177203
44468589,1986,1974,2131,2136,1745190594819177203
44469589,2010,1949,2148,2044,1745190594819177203
44470590,2024,1926,2153,1929,1745190594819177203
44471590,2037,1906,2139,1827,1745190594819177203
44472590,2043,1888,2107,1774,1745190594819177203
44473590,2031,1869,2086,1780,1745190594819177203
44474590,2026,1869,2083,1829,1745190594819177203
44475590,2012,1886,2092,1887,1745190594819177203
44476590,1995,1929,2104,1921,1745190594819177203
44477590,1974,1987,2108,1906,1745190594819177203
44478590,1952,2054,2109,1855,1745190594819177203
44479590,1932,2114,2107,1805,1745190594819177203
44480590,1916,2162,2100,1792,1745190594819177203
44481590,1908,2201,2097,1820,1745190594819177203
44482591,1907,2226,2093,1887,1745190594819177203
44483591,1916,2218,2089,1973,1745190594819177203
44484591,1929,2169,2090,2051,1745190594819177203
44485591,1948,2098,2086,2088,1745190594819177203
44486591,1966,2019,2078,2084,1745190594819177203
44487591,1985,1946,2066,2073,1745190594819177203
44488591,2001,1887,2056,2062,1745190594819177203
44489591,2016,1865,2043,2026,1745190594819177203
44490591,2028,1869,2032,1956,1745190594819177203
44491591,2038,1884,2022,1869,1745190594819177203
44492591,2048,1901,2010,1787,1745190594819177203
44493591,2048,1923,1999,1740,1745190594819177203
44494592,2040,1949,1990,1748,1745190594819177203
44495592,2032,1982,1994,1822,1745190594819177203
44496592,2016,2020,2009,1918,1745190594819177203
44497592,2000,2059,2028,1978,1745190594819177203
44498592,1981,2084,2036,1988,1745190594819177203
44499592,1965,2099,2035,1949,1745190594819177203
44500592,1949,2128,2038,1907,1745190594819177203
44501592,1936,2164,2049,1898,1745190594819177203
44502592,1928,2200,2054,1935,1745190594819177203
44503592,1930,2222,2062,2026,1745190594819177203
44504592,1938,2229,2076,2162,1745190594819177203
44505592,1951,2223,2098,2313,1745190594819177203
44506593,1966,2210,2130,2428,1745190594959854199
44507593,1986,2186,2163,2468,1745190594959854199
44508593,2004,2139,2189,2448,1745190594959854199
44509593,2023,2078,2205,2394,1745190594959854199
44510593,2037,2014,2210,2330,1745190594959854199
44511593,2050,1964,2207,2266,1745190594959854199
44512593,2057,1928,2201,2211,1745190594959854199
44513593,2059,1905,2192,2176,1745190594959854199
44514593,2056,1899,2182,2157,1745190594959854199
44515593,2050,1908,2171,2145,1745190594959854199
44516593,2036,1933,2159,2117,1745190594959854199
44517593,2018,1968,2147,2065,1745190594959854199
44518594,1996,2010,2136,1986,1745190594959854199
44519594,1974,2070,2120,1899,1745190594959854199
44520594,1957,2145,2100,1814,1745190594959854199
44521594,1945,2229,2078,1757,1745190594959854199
44522594,1944,2283,2067,1744,1745190594959854199
44523594,1951,2282,2064,1782,1745190594959854199
44524594,1977,2235,2063,1893,1745190594959854199
44525594,1982,2165,2077,2044,1745190594959854199
44526594,2002,2075,2090,2174,1745190594959854199
44527594,2022,1976,2090,2225,1745190594959854199
44528594,2042,1877,2074,2165,1745190594959854199
44529594,2061,1781,2051,2034,1745190594959854199
44530595,2074,1690,2020,1913,1745190594959854199
44531595,2082,1634,1996,1866,1745190594959854199
44532595,2090,1622,1977,1885,1745190594959854199
44533595,2092,1657,1972,1969,1745190594959854199
44534595,2090,1732,1977,2038,1745190594959854199
44535595,2086,1849,1984,2074,1745190594959854199
44536595,2080,1980,1992,2090,1745190594959854199
44537595,2070,2106,2002,2117,1745190594959854199
44538595,2050,2202,2018,2158,1745190594959854199
44539595,2025,2266,2034,2201,1745190594959854199
44540595,2005,2304,2045,2245,1745190594959854199
44541595,1989,2329,2052,2274,1745190594959854199
44542596,1982,2338,2051,2273,1745190594959854199
44543596,1989,2338,2041,2250,1745190594959854199
44544596,1996,2326,2034,2235,1745190594959854199
44545596,2010,2298,2038,2248,1745190594959854199
44546596,2021,2257,2058,2265,1745190594959854199
44547596,2037,2201,2077,2264,1745190594959854199
44548596,2056,2138,2084,2254,1745190594959854199
44549597,2072,2076,2078,2254,1745190594959854199
44550596,2078,2025,2064,2269,1745190594959854199
44551596,2088,1990,2049,2291,1745190594959854199
44552598,2091,1978,2036,2292,1745190594959854199
44553596,2093,1986,2026,2276,1745190594959854199
44554597,2092,2004,2017,2252,1745190594959854199
44555597,2088,2036,2004,2215,1745190594959854199
44556597,2078,2085,1995,2170,1745190594959854199
44557597,2063,2144,1988,2115,1745190594959854199
44558597,2048,2202,1988,2044,1745190594959854199
44559597,2030,2253,1997,1986,1745190594959854199
44560597,2018,2291,2011,1958,1745190594959854199
44561597,2010,2318,2033,1945,1745190594959854199
44562597,2004,2338,2064,1960,1745190594959854199
44563597,2006,2350,2089,1984,1745190594959854199
44564597,2011,2351,2100,2001,1745190594971917839
44565597,2022,2340,2098,2020,1745190594971917839
44566598,2034,2310,2088,2062,1745190594971917839
44567598,2057,2262,2079,2136,1745190594971917839
44568598,2078,2190,2078,2227,1745190594971917839
44569598,2097,2107,2081,2300,1745190594971917839
44570598,2112,2038,2091,2317,1745190594971917839
44571598,2120,2006,2108,2269,1745190594971917839
44572598,2124,2009,2126,2186,1745190594971917839
44573598,2125,2040,2141,2101,1745190594971917839
44574598,2118,2078,2147,2053,1745190594971917839
44575598,2106,2128,2150,2056,1745190594971917839
44576598,2090,2160,2154,2094,1745190594971917839
44577598,2068,2210,2152,2141,1745190594971917839
44578599,2044,2262,2142,2181,1745190594971917839
44579600,2025,2302,2118,2188,1745190594971917839
44580599,2012,2331,2099,2166,1745190594971917839
44581599,2005,2342,2082,2136,1745190594971917839
44582600,2005,2341,2076,2133,1745190594971917839
44583599,2012,2329,2077,2152,1745190594971917839
44584599,2021,2306,2084,2188,1745190594971917839
44585599,2034,2275,2097,2245,1745190594971917839
44586599,2052,2242,2115,2301,1745190594971917839
44587599,2067,2208,2129,2330,1745190594971917839
44588599,2086,2173,2144,2332,1745190594971917839
44589599,2100,2142,2140,2307,1745190594971917839
44590600,2115,2117,2125,2248,1745190594971917839
44591600,2126,2100,2102,2169,1745190594971917839
44592600,2134,2084,2086,2099,1745190594971917839
44593600,2142,2079,2082,2053,1745190594971917839
44594600,2145,2073,2090,2034,1745190594971917839
44595600,2142,2067,2102,2060,1745190594971917839
44596600,2132,2069,2110,2094,1745190594971917839
44597600,2118,2083,2109,2097,1745190594971917839
44598600,2105,2104,2099,2075,1745190594971917839
44599600,2090,2142,2080,2053,1745190594971917839
44600600,2079,2202,2061,2060,1745190594971917839
44601600,2073,2276,2050,2095,1745190594971917839
44602601,2072,2335,2043,2117,1745190594971917839
44603601,2075,2358,2040,2096,1745190594971917839
44604601,2084,2331,2032,2027,1745190594971917839
44605601,2100,2259,2018,1950,1745190594971917839
44606601,2116,2176,1997,1904,1745190594971917839
44607601,2132,2105,1973,1897,1745190594971917839
44608601,2145,2054,1957,1927,1745190594971917839
44609601,2154,2031,1957,1986,1745190594971917839
44610601,2161,2033,1973,2048,1745190594971917839
44611601,2163,2052,1995,2100,1745190594971917839
44612601,2162,2066,2018,2154,1745190594971917839
44613601,2155,2080,2035,2210,1745190594971917839
44614602,2146,2099,2041,2264,1745190594971917839
44615602,2136,2126,2042,2304,1745190594971917839
44616602,2122,2161,2037,2331,1745190594971917839
44617602,2104,2197,2030,2330,1745190594971917839
44618602,2084,2238,2020,2302,1745190594971917839
44619602,2065,2278,2010,2257,1745190594971917839
44620602,2050,2309,2001,2192,1745190594971917839
44621602,2040,2325,1989,2108,1745190594971917839
44622602,2038,2323,1973,2002,1745190594990663293
44623602,2042,2307,1956,1883,1745190594990663293
44624602,2053,2279,1937,1782,1745190594990663293
44625602,2067,2241,1912,1734,1745190594990663293
44626603,2081,2209,1894,1786,1745190594990663293
44627603,2094,2187,1899,1924,1745190594990663293
44628603,2107,2169,1928,2098,1745190594990663293
44629603,2114,2160,1972,2245,1745190594990663293
44630603,2118,2162,2014,2322,1745190594990663293
44631603,2121,2158,2040,2315,1745190594990663293
44632603,2124,2133,2049,2237,1745190594990663293
44633603,2125,2076,2038,2132,1745190594990663293
44634603,2124,2009,2024,2035,1745190594990663293
44635603,2117,1960,2007,1966,1745190594990663293
44636603,2105,1929,2001,1938,1745190594990663293
44637603,2086,1928,2002,1945,1745190594990663293
44638604,2065,1954,2009,1977,1745190594990663293
44639604,2044,1992,2014,2039,1745190594990663293
44640604,2028,2029,2015,2121,1745190594990663293
44641605,2016,2077,2012,2195,1745190594990663293
44642604,2008,2121,2005,2251,1745190594990663293
44643604,2008,2128,1994,2267,1745190594990663293
44644604,2013,2128,1985,2224,1745190594990663293
44645604,2025,2096,1973,2115,1745190594990663293
44646604,2038,2057,1958,1961,1745190594990663293
44647604,2059,2006,1940,1818,1745190594990663293
44648604,2077,1956,1922,1729,1745190594990663293
44649604,2096,1906,1899,1709,1745190594990663293
44650605,2107,1870,1888,1791,1745190594990663293
44651605,2115,1849,1894,1939,1745190594990663293
44652605,2116,1847,1916,2060,1745190594990663293
44653605,2115,1859,1945,2084,1745190594990663293
44654605,2108,1882,1964,2031,1745190594990663293
44655605,2098,1916,1972,1948,1745190594990663293
44656605,2082,1961,1964,1870,1745190594990663293
44657605,2061,2017,1942,1811,1745190594990663293
44658605,2037,2082,1918,1793,1745190594990663293
44659605,2016,2146,1905,1844,1745190594990663293
44660605,1996,2204,1910,1945,1745190594990663293
44661605,1981,2257,1934,2053,1745190594990663293
44662606,1975,2296,1968,2145,1745190594990663293
44663606,1978,2324,2001,2215,1745190594990663293
44664606,1989,2355,2020,2242,1745190594990663293
44665606,2003,2344,2022,2242,1745190594990663293
44666606,2026,2322,2012,2221,1745190594990663293
44667606,2049,2280,1990,2187,1745190594990663293
44668606,2069,2207,1970,2148,1745190594990663293
44669606,2089,2118,1945,2106,1745190594990663293
44670606,2101,2037,1924,2068,1745190594990663293
44671606,2107,1995,1909,2040,1745190594990663293
44672606,2110,1994,1896,2030,1745190594990663293
44673606,2108,2022,1887,2032,1745190594990663293
44674607,2102,2068,1878,2037,1745190594990663293
44675607,2091,2121,1869,2048,1745190594990663293
44676607,2075,2179,1857,2056,1745190594990663293
44677607,2052,2244,1846,2042,1745190594990663293
44678607,2029,2309,1836,1992,1745190594990663293
44679607,2009,2368,1826,1920,1745190594990663293
44680607,1994,2414,1813,1869,1745190595061325772
44681607,1986,2445,1813,1864,1745190595061325772
44682607,1987,2452,1802,1881,1745190595061325772
44683607,1997,2442,1800,1885,1745190595061325772
44684607,2017,2414,1793,1841,1745190595061325772
44685607,2041,2373,1784,1773,1745190595061325772
44686608,2068,2322,1773,1736,1745190595061325772
44687608,2093,2266,1762,1768,1745190595061325772
44688608,2113,2216,1756,1855,1745190595061325772
44689608,2129,2170,1762,1946,1745190595061325772
44690608,2140,2132,1780,2010,1745190595061325772
44691608,2147,2104,1805,2057,1745190595061325772
44692608,2150,2090,1827,2120,1745190595061325772
44693608,2152,2086,1848,2227,1745190595061325772
44694608,2148,2090,1867,2352,1745190595061325772
44695608,2140,2105,1881,2452,1745190595061325772
44696610,2126,2136,1891,2507,1745190595061325772
44697608,2107,2184,1894,2515,1745190595061325772
44698609,2085,2250,1892,2491,1745190595061325772
44699609,2060,2325,1888,2457,1745190595061325772
44700609,2042,2399,1881,2410,1745190595061325772
44701609,2032,2437,1871,2358,1745190595061325772
44702609,2031,2438,1860,2302,1745190595061325772
44703609,2042,2403,1850,2242,1745190595061325772
44704609,2061,2347,1833,2180,1745190595061325772
44705609,2085,2277,1816,2112,1745190595061325772
44706609,2108,2200,1800,2038,1745190595061325772
44707609,2132,2121,1784,1976,1745190595061325772
44708609,2154,2052,1776,1937,1745190595061325772
44709609,2170,1993,1779,1920,1745190595061325772
44710610,2178,1952,1790,1901,1745190595061325772
44711610,2181,1923,1810,1866,1745190595061325772
44712610,2180,1907,1832,1833,1745190595061325772
44713610,2174,1903,1848,1818,1745190595061325772
44714610,2164,1917,1873,1829,1745190595061325772
44715610,2149,1952,1890,1853,1745190595061325772
44716610,2128,2004,1904,1859,1745190595061325772
44717610,2101,2066,1914,1824,1745190595061325772
44718610,2074,2123,1921,1768,1745190595061325772
44719610,2050,2164,1918,1740,1745190595061325772
44720610,2032,2183,1916,1772,1745190595061325772
44721610,2024,2170,1925,1847,1745190595061325772
44722611,2026,2130,1944,1914,1745190595061325772
44723611,2036,2074,1971,1946,1745190595061325772
44724611,2057,2012,1993,1957,1745190595061325772
44725611,2081,1963,2005,1947,1745190595061325772
44726611,2106,1929,2020,1940,1745190595061325772
44727611,2126,1896,2025,1950,1745190595061325772
44728611,2146,1863,2040,1974,1745190595061325772
44729611,2159,1841,2057,2002,1745190595061325772
44730611,2169,1835,2069,2025,1745190595061325772
44731611,2172,1832,2080,2031,1745190595061325772
44732611,2174,1813,2090,1992,1745190595061325772
44733611,2172,1784,2096,1907,1745190595061325772
44734612,2165,1757,2096,1800,1745190595061325772
44735612,2153,1747,2091,1700,1745190595061325772
44736612,2131,1762,2085,1651,1745190595061325772
44737612,2101,1797,2082,1692,1745190595061325772
44738612,2072,1845,2077,1806,1745190595110888653
44739612,2040,1896,2083,1949,1745190595110888653
44740612,2019,1940,2097,2076,1745190595110888653
44741612,1998,1973,2113,2161,1745190595110888653
44742612,1988,1995,2132,2179,1745190595110888653
44743612,1986,1997,2145,2124,1745190595110888653
44744612,1994,1985,2158,2010,1745190595110888653
44745612,2008,1955,2163,1907,1745190595110888653
44746613,2021,1916,2173,1854,1745190595110888653
44747613,2033,1873,2180,1846,1745190595110888653
44748613,2044,1825,2192,1867,1745190595110888653
44749613,2053,1780,2206,1902,1745190595110888653
44750613,2061,1744,2226,1937,1745190595110888653
44751613,2069,1726,2248,1976,1745190595110888653
44752613,2080,1725,2264,2020,1745190595110888653
44753613,2083,1721,2276,2053,1745190595110888653
44754613,2082,1718,2282,2072,1745190595110888653
44755613,2072,1734,2283,2081,1745190595110888653
44756613,2056,1782,2281,2090,1745190595110888653
44757613,2035,1856,2276,2094,1745190595110888653
44758614,2012,1936,2269,2101,1745190595110888653
44759614,1989,2000,2259,2105,1745190595110888653
44760614,1968,2043,2245,2100,1745190595110888653
44761614,1951,2068,2232,2068,1745190595110888653
44762614,1944,2070,2206,1996,1745190595110888653
44763614,1941,2059,2196,1899,1745190595110888653
44764614,1941,2036,2180,1795,1745190595110888653
44765614,1942,2006,2161,1722,1745190595110888653
44766614,1949,1973,2141,1692,1745190595110888653
44767614,1958,1932,2137,1706,1745190595110888653
44768614,1971,1897,2133,1707,1745190595110888653
44769614,1982,1868,2130,1649,1745190595110888653
44770615,1988,1850,2137,1557,1745190595110888653
44771615,1985,1841,2120,1496,1745190595110888653
44772615,1978,1846,2116,1512,1745190595110888653
44773615,1965,1866,2118,1632,1745190595110888653
44774615,1950,1900,2139,1836,1745190595110888653
44775615,1929,1950,2173,2058,1745190595110888653
44776615,1910,2017,2208,2261,1745190595110888653
44777615,1883,2100,2246,2425,1745190595110888653
44778615,1853,2187,2277,2533,1745190595110888653
44779615,1827,2270,2299,2573,1745190595110888653
44780615,1806,2342,2306,2574,1745190595110888653
44781615,1794,2398,2303,2559,1745190595110888653
44782616,1793,2428,2298,2532,1745190595110888653
44783616,1798,2435,2285,2489,1745190595110888653
44784616,1814,2419,2269,2434,1745190595110888653
44785616,1838,2386,2252,2372,1745190595110888653
44786616,1866,2341,2234,2314,1745190595110888653
44787616,1891,2293,2217,2262,1745190595110888653
44788616,1914,2247,2203,2208,1745190595110888653
44789616,1930,2210,2190,2144,1745190595110888653
44790616,1940,2186,2177,2075,1745190595110888653
44791616,1944,2170,2166,2001,1745190595110888653
44792616,1946,2168,2158,1964,1745190595110888653
44793616,1940,2182,2146,1925,1745190595110888653
44794617,1929,2213,2128,1875,1745190595110888653
44795617,1911,2263,2099,1819,1745190595110888653
44796617,1888,2331,2061,1740,1745190595171210862
44797617,1858,2411,2018,1661,1745190595171210862
44798617,1830,2491,1980,1623,1745190595171210862
44799617,1803,2559,1954,1673,1745190595171210862
44800617,1785,2613,1953,1849,1745190595171210862
44801617,1777,2660,1988,2121,1745190595171210862
44802617,1777,2694,2053,2397,1745190595171210862
44803617,1792,2708,2121,2595,1745190595171210862
44804617,1816,2698,2173,2703,1745190595171210862
44805617,1846,2668,2197,2739,1745190595171210862
44806618,1880,2624,2202,2721,1745190595171210862
44807618,1909,2569,2194,2666,1745190595171210862
44808618,1940,2523,2177,2589,1745190595171210862
44809618,1965,2472,2154,2534,1745190595171210862
44810618,1986,2432,2133,2496,1745190595171210862
44811618,2000,2405,2113,2472,1745190595171210862
44812618,2008,2400,2093,2451,1745190595171210862
44813618,2008,2420,2078,2433,1745190595171210862
44814618,2002,2461,2063,2418,1745190595171210862
44815618,1989,2526,2048,2429,1745190595171210862
44816618,1963,2595,2033,2420,1745190595171210862
44817618,1934,2700,2021,2435,1745190595171210862
44818619,1892,2800,2005,2446,1745190595171210862
44819619,1867,2892,1980,2430,1745190595171210862
44820619,1842,2968,1949,2354,1745190595171210862
44821619,1828,3033,1901,2216,1745190595171210862
44822619,1829,3067,1846,2022,1745190595171210862
44823619,1841,3078,1791,1833,1745190595171210862
44824619,1868,3065,1746,1699,1745190595171210862
44825619,1905,3037,1717,1627,1745190595171210862
44826619,1947,3000,1705,1588,1745190595171210862
44827619,1992,2954,1704,1590,1745190595171210862
44828619,2034,2914,1716,1681,1745190595171210862
44829619,2073,2884,1740,1917,1745190595171210862
44830620,2109,2868,1771,2278,1745190595171210862
44831620,2139,2864,1797,2659,1745190595171210862
44832620,2168,2869,1820,2954,1745190595171210862
44833620,2193,2880,1839,3098,1745190595171210862
44834620,2214,2895,1853,3092,1745190595171210862
44835620,2229,2920,1858,2978,1745190595171210862
44836620,2237,2954,1854,2849,1745190595171210862
44837620,2241,2993,1842,2750,1745190595171210862
44838620,2235,3029,1828,2682,1745190595171210862
44839620,2230,3054,1810,2629,1745190595171210862
44840620,2232,3067,1786,2581,1745190595171210862
44841620,2241,3056,1760,2532,1745190595171210862
44842621,2259,3029,1734,2468,1745190595171210862
44843621,2283,2970,1713,2398,1745190595171210862
44844621,2314,2896,1696,2328,1745190595171210862
44845621,2349,2811,1685,2257,1745190595171210862
44846621,2384,2715,1681,2188,1745190595171210862
44847621,2418,2609,1681,2118,1745190595171210862
44848621,2454,2512,1682,2056,1745190595171210862
44849621,2485,2410,1685,1996,1745190595171210862
44850621,2512,2312,1690,1946,1745190595171210862
44851621,2532,2225,1696,1901,1745190595171210862
44852621,2549,2148,1704,1860,1745190595171210862
44853621,2559,2080,1707,1820,1745190595171210862
44854622,2560,2018,1704,1761,1745190595239136179
44855622,2560,1971,1685,1648,1745190595239136179
44856622,2559,1934,1652,1483,1745190595239136179
44857622,2554,1905,1614,1286,1745190595239136179
44858622,2538,1884,1579,1152,1745190595239136179
44859622,2521,1869,1569,1174,1745190595239136179
44860622,2498,1866,1611,1390,1745190595239136179
44861622,2490,1864,1697,1669,1745190595239136179
44862622,2478,1848,1793,1882,1745190595239136179
44863622,2481,1813,1869,1969,1745190595239136179
44864622,2493,1756,1920,1947,1745190595239136179
44865622,2508,1681,1943,1870,1745190595239136179
44866623,2528,1594,1945,1817,1745190595239136179
44867623,2544,1510,1941,1819,1745190595239136179
44868623,2553,1425,1940,1859,1745190595239136179
44869623,2556,1344,1940,1896,1745190595239136179
44870623,2553,1274,1944,1904,1745190595239136179
44871623,2542,1212,1944,1885,1745190595239136179
44872623,2534,1163,1949,1849,1745190595239136179
44873623,2520,1122,1955,1807,1745190595239136179
44874623,2500,1096,1960,1775,1745190595239136179
44875623,2476,1083,1973,1746,1745190595239136179
44876623,2452,1089,1964,1714,1745190595239136179
44877623,2412,1110,1964,1642,1745190595239136179
44878624,2378,1134,1956,1525,1745190595239136179
44879624,2344,1156,1938,1369,1745190595239136179
44880624,2309,1166,1920,1214,1745190595239136179
44881624,2286,1159,1878,1097,1745190595239136179
44882624,2270,1134,1852,1046,1745190595239136179
44883624,2259,1100,1832,1058,1745190595239136179
44884624,2258,1059,1816,1057,1745190595239136179
44885624,2256,1016,1810,989,1745190595239136179
44886624,2256,970,1821,898,1745190595239136179
44887624,2258,923,1852,859,1745190595239136179
44888624,2258,883,1909,971,1745190595239136179
44889624,2252,861,2003,1245,1745190595239136179
44890625,2243,852,2116,1581,1745190595239136179
44891625,2230,856,2219,1894,1745190595239136179
44892625,2219,863,2292,2129,1745190595239136179
44893625,2200,872,2331,2272,1745190595239136179
44894625,2174,882,2344,2337,1745190595239136179
44895625,2152,897,2338,2347,1745190595239136179
44896627,2106,930,2316,2321,1745190595239136179
44897625,2062,976,2305,2274,1745190595239136179
44898625,2016,1028,2286,2219,1745190595239136179
44899625,1976,1081,2266,2158,1745190595239136179
44900625,1940,1125,2245,2098,1745190595239136179
44901625,1917,1156,2220,2034,1745190595239136179
44902626,1903,1168,2196,1971,1745190595239136179
44903626,1900,1163,2171,1912,1745190595239136179
44904626,1904,1142,2148,1853,1745190595239136179
44905626,1912,1114,2125,1801,1745190595239136179
44906626,1926,1074,2108,1755,1745190595239136179
44907626,1940,1035,2092,1715,1745190595239136179
44908626,1957,996,2084,1680,1745190595239136179
44909626,1971,963,2078,1645,1745190595239136179
44910626,1978,938,2074,1601,1745190595239136179
44911626,1981,920,2066,1535,1745190595239136179
44912626,1981,909,2058,1433,1745190595287834797
44913626,1978,905,2045,1290,1745190595287834797
44914627,1972,908,2027,1134,1745190595287834797
44915627,1962,929,2013,1024,1745190595287834797
44916627,1947,976,2006,1019,1745190595287834797
44917627,1932,1048,2012,1149,1745190595287834797
44918627,1918,1131,2018,1369,1745190595287834797
44919627,1907,1217,2041,1605,1745190595287834797
44920627,1894,1294,2070,1832,1745190595287834797
44921627,1882,1354,2102,2033,1745190595287834797
44922627,1876,1393,2139,2204,1745190595287834797
44923627,1873,1410,2171,2323,1745190595287834797
44924627,1868,1411,2198,2382,1745190595287834797
44925627,1867,1393,2212,2382,1745190595287834797
44926628,1871,1362,2218,2344,1745190595287834797
44927628,1877,1326,2215,2280,1745190595287834797
44928628,1886,1287,2208,2206,1745190595287834797
44929628,1892,1256,2194,2124,1745190595287834797
44930628,1898,1227,2173,2008,1745190595287834797
44931628,1896,1216,2143,1846,1745190595287834797
44932628,1894,1202,2107,1649,1745190595287834797
44933628,1885,1197,2066,1459,1745190595287834797
44934628,1869,1200,2019,1288,1745190595287834797
44935628,1855,1213,1976,1129,1745190595287834797
44936628,1833,1244,1945,984,1745190595287834797
44937628,1811,1284,1925,888,1745190595287834797
44938629,1787,1331,1906,939,1745190595287834797
44939629,1763,1386,1899,1255,1745190595287834797
44940629,1737,1462,1926,1722,1745190595287834797
44941629,1714,1536,1975,2177,1745190595287834797
44942629,1697,1605,1997,2488,1745190595287834797
44943629,1690,1652,1954,2602,1745190595287834797
44944629,1697,1672,1855,2576,1745190595287834797
44945629,1698,1672,1738,2467,1745190595287834797
44946629,1713,1650,1616,2334,1745190595287834797
44947629,1731,1617,1529,2226,1745190595287834797
44948629,1749,1583,1477,2139,1745190595287834797
44949629,1762,1552,1468,2090,1745190595287834797
44950630,1773,1535,1492,2082,1745190595287834797
44951630,1778,1522,1535,2117,1745190595287834797
44952630,1779,1521,1593,2150,1745190595287834797
44953630,1776,1532,1656,2148,1745190595287834797
44954630,1767,1546,1722,2137,1745190595287834797
44955630,1754,1584,1783,2123,1745190595287834797
44956630,1736,1634,1832,2114,1745190595287834797
44957630,1712,1692,1869,2108,1745190595287834797
44958630,1691,1746,1890,2105,1745190595287834797
44959630,1671,1795,1896,2096,1745190595287834797
44960630,1657,1832,1886,2080,1745190595287834797
44961630,1649,1853,1870,2059,1745190595287834797
44962631,1648,1856,1856,2038,1745190595287834797
44963631,1657,1842,1844,2017,1745190595287834797
44964631,1670,1818,1836,1935,1745190595287834797
44965631,1685,1788,1828,1851,1745190595287834797
44966631,1705,1750,1828,1749,1745190595287834797
44967631,1728,1712,1824,1610,1745190595287834797
44968631,1748,1675,1829,1438,1745190595287834797
44969631,1766,1641,1850,1222,1745190595287834797
44970631,1783,1610,1885,1026,1745190595344983025
44971631,1794,1588,1932,941,1745190595344983025
44972631,1795,1580,2004,1081,1745190595344983025
44973631,1787,1594,2101,1441,1745190595344983025
44974632,1773,1634,2217,1896,1745190595344983025
44975632,1753,1703,2335,2337,1745190595344983025
44976632,1734,1788,2446,2656,1745190595344983025
44977632,1706,1878,2538,2852,1745190595344983025
44978632,1686,1962,2596,2939,1745190595344983025
44979632,1673,2025,2644,2949,1745190595344983025
44980632,1667,2074,2675,2908,1745190595344983025
44981632,1674,2099,2691,2841,1745190595344983025
44982632,1689,2105,2693,2764,1745190595344983025
44983632,1707,2092,2690,2685,1745190595344983025
44984632,1734,2066,2684,2610,1745190595344983025
44985632,1765,2021,2677,2547,1745190595344983025
44986633,1796,1977,2677,2477,1745190595344983025
44987633,1821,1930,2674,2400,1745190595344983025
44988633,1848,1886,2670,2311,1745190595344983025
44989633,1868,1852,2662,2209,1745190595344983025
44990633,1884,1828,2652,2078,1745190595344983025
44991634,1892,1809,2641,1904,1745190595344983025
44992634,1900,1796,2628,1686,1745190595344983025
44993633,1898,1786,2625,1483,1745190595344983025
44994633,1909,1787,2638,1366,1745190595344983025
44995633,1906,1803,2679,1432,1745190595344983025
44996633,1896,1850,2753,1675,1745190595344983025
44997633,1876,1922,2843,1971,1745190595344983025
44998634,1849,2003,2951,2223,1745190595344983025
44999634,1822,2081,3025,2406,1745190595344983025
45000634,1798,2145,3096,2552,1745190595344983025
45001634,1787,2187,3142,2644,1745190595344983025
45002634,1781,2209,3166,2706,1745190595344983025
45003634,1787,2213,3180,2736,1745190595344983025
45004634,1802,2196,3184,2741,1745190595344983025
45005634,1824,2165,3180,2723,1745190595344983025
45006634,1848,2123,3162,2682,1745190595344983025
45007634,1873,2080,3129,2626,1745190595344983025
45008634,1897,2035,3092,2562,1745190595344983025
45009634,1920,1995,3045,2510,1745190595344983025
45010635,1937,1966,2996,2458,1745190595344983025
45011635,1949,1949,2948,2419,1745190595344983025
45012635,1956,1948,2901,2391,1745190595344983025
45013635,1961,1956,2856,2373,1745190595344983025
45014635,1965,1978,2826,2366,1745190595344983025
45015635,1964,2010,2811,2348,1745190595344983025
45016635,1958,2061,2798,2288,1745190595344983025
45017635,1951,2118,2778,2171,1745190595344983025
45018635,1941,2180,2749,2027,1745190595344983025
45019635,1936,2236,2705,1907,1745190595344983025
45020635,1934,2278,2653,1851,1745190595344983025
45021635,1942,2307,2609,1802,1745190595344983025
45022636,1957,2322,2566,1659,1745190595344983025
45023636,1977,2315,2522,1442,1745190595344983025
45024636,1997,2294,2462,1248,1745190595344983025
45025636,2018,2268,2412,1173,1745190595344983025
45026636,2031,2249,2393,1302,1745190595344983025
45027636,2042,2245,2425,1625,1745190595344983025
45028636,2052,2252,2502,2042,1745190595404926800
45029636,2054,2256,2585,2488,1745190595404926800
45030636,2044,2233,2669,2899,1745190595404926800
45031636,2033,2182,2714,3218,1745190595404926800
45032636,2018,2128,2714,3409,1745190595404926800
45033636,2005,2078,2656,3475,1745190595404926800
45034637,1990,2051,2555,3450,1745190595404926800
45035637,1978,2050,2404,3365,1745190595404926800
45036637,1965,2076,2254,3260,1745190595404926800
45037637,1952,2123,2122,3138,1745190595404926800
45038637,1936,2185,2009,3008,1745190595404926800
45039637,1924,2246,1923,2874,1745190595404926800
45040637,1922,2293,1859,2733,1745190595404926800
45041637,1928,2334,1823,2589,1745190595404926800
45042637,1941,2363,1793,2453,1745190595404926800
45043637,1964,2379,1755,2294,1745190595404926800
45044637,1988,2376,1713,2102,1745190595404926800
45045637,2011,2354,1675,1876,1745190595404926800
45046638,2033,2316,1640,1645,1745190595404926800
45047638,2057,2268,1618,1496,1745190595404926800
45048638,2076,2235,1635,1489,1745190595404926800
45049638,2087,2228,1706,1629,1745190595404926800
45050638,2091,2253,1812,1844,1745190595404926800
45051638,2092,2303,1933,2049,1745190595404926800
45052638,2084,2350,2048,2211,1745190595404926800
45053638,2076,2398,2144,2322,1745190595404926800
45054638,2069,2444,2234,2402,1745190595404926800
45055638,2064,2491,2276,2468,1745190595404926800
45056638,2053,2533,2306,2518,1745190595404926800
45057638,2036,2559,2317,2553,1745190595404926800
45058639,2018,2576,2314,2560,1745190595404926800
45059639,2000,2585,2307,2560,1745190595404926800
45060639,1984,2587,2302,2559,1745190595404926800
45061639,1980,2584,2293,2559,1745190595404926800
45062639,1980,2571,2306,2552,1745190595404926800
45063639,1982,2559,2313,2515,1745190595404926800
45064639,1986,2528,2319,2460,1745190595404926800
45065639,1994,2478,2320,2403,1745190595404926800
45066639,2005,2420,2314,2337,1745190595404926800
45067639,2020,2362,2299,2250,1745190595404926800
45068639,2041,2315,2281,2125,1745190595404926800
45069639,2063,2282,2259,1979,1745190595404926800
45070640,2077,2264,2243,1837,1745190595404926800
45071640,2082,2261,2242,1692,1745190595404926800
45072640,2086,2268,2245,1525,1745190595404926800
45073640,2089,2283,2244,1370,1745190595404926800
45074640,2089,2308,2240,1307,1745190595404926800
45075640,2086,2354,2250,1422,1745190595404926800
45076640,2072,2443,2298,1756,1745190595404926800
45077640,2051,2559,2376,2201,1745190595404926800
45078640,2031,2673,2452,2586,1745190595404926800
45079640,2020,2766,2512,2859,1745190595404926800
45080640,2019,2832,2546,3006,1745190595404926800
45081640,2025,2868,2550,3049,1745190595404926800
45082641,2040,2874,2538,3014,1745190595404926800
45083641,2061,2852,2512,2930,1745190595404926800
45084641,2083,2814,2496,2827,1745190595404926800
45085641,2104,2771,2478,2720,1745190595404926800
45086641,2125,2724,2467,2616,1745190595471223069
45087641,2144,2683,2464,2530,1745190595471223069
45088641,2161,2644,2472,2444,1745190595471223069
45089641,2173,2613,2485,2364,1745190595471223069
45090641,2184,2587,2505,2300,1745190595471223069
45091641,2193,2576,2517,2239,1745190595471223069
45092641,2198,2584,2526,2174,1745190595471223069
45093641,2196,2605,2526,2094,1745190595471223069
45094642,2187,2636,2514,2000,1745190595471223069
45095642,2171,2675,2494,1916,1745190595471223069
45096642,2150,2714,2478,1862,1745190595471223069
45097642,2128,2748,2469,1851,1745190595471223069
45098642,2105,2768,2466,1889,1745190595471223069
45099642,2086,2756,2466,1965,1745190595471223069
45100642,2072,2728,2459,2040,1745190595471223069
45101642,2064,2701,2448,2090,1745190595471223069
45102642,2065,2681,2421,2105,1745190595471223069
45103642,2069,2660,2384,2102,1745190595471223069
45104642,2078,2632,2329,2118,1745190595471223069
45105642,2089,2581,2257,2170,1745190595471223069
45106643,2107,2555,2181,2255,1745190595471223069
45107643,2123,2500,2116,2318,1745190595471223069
45108643,2140,2442,2067,2350,1745190595471223069
45109643,2155,2409,2033,2364,1745190595471223069
45110643,2160,2325,2016,2330,1745190595471223069
45111643,2166,2289,2011,2293,1745190595471223069
45112643,2165,2258,2010,2249,1745190595471223069
45113643,2162,2238,2009,2201,1745190595471223069
45114643,2153,2224,2005,2139,1745190595471223069
45115643,2136,2237,1989,2028,1745190595471223069
45116643,2117,2257,1957,1841,1745190595471223069
45117643,2094,2283,1909,1601,1745190595471223069
45118644,2071,2310,1850,1361,1745190595471223069
45119644,2049,2334,1785,1178,1745190595471223069
45120644,2026,2362,1722,1119,1745190595471223069
45121644,2011,2403,1678,1218,1745190595471223069
45122644,2004,2454,1659,1421,1745190595471223069
45123644,2006,2504,1664,1634,1745190595471223069
45124644,2016,2548,1681,1851,1745190595471223069
45125644,2026,2566,1710,2053,1745190595471223069
45126644,2033,2588,1742,2210,1745190595471223069
45127644,2041,2592,1769,2305,1745190595471223069
45128644,2053,2569,1782,2354,1745190595471223069
45129644,2067,2525,1780,2381,1745190595471223069
45130645,2088,2454,1755,2402,1745190595471223069
45131645,2105,2376,1722,2420,1745190595471223069
45132645,2120,2307,1692,2414,1745190595471223069
45133645,2131,2255,1673,2373,1745190595471223069
45134645,2140,2227,1661,2306,1745190595471223069
45135645,2145,2226,1651,2238,1745190595471223069
45136645,2147,2248,1640,2179,1745190595471223069
45137645,2139,2288,1626,2132,1745190595471223069
45138645,2129,2332,1613,2094,1745190595471223069
45139645,2121,2373,1613,2054,1745190595471223069
45140645,2118,2402,1627,2000,1745190595471223069
45141645,2121,2405,1646,1908,1745190595471223069
45142646,2131,2380,1649,1733,1745190595471223069
45143646,2148,2323,1620,1440,1745190595471223069
45144646,2172,2242,1565,1104,1745190595520576837
45145646,2198,2140,1515,866,1745190595520576837
45146646,2224,2036,1470,684,1745190595520576837
45147646,2244,1955,1468,597,1745190595520576837
45148646,2256,1915,1537,779,1745190595520576837
45149646,2262,1924,1689,1200,1745190595520576837
45150646,2270,1966,1877,1709,1745190595520576837
45151646,2282,2029,2069,2234,1745190595520576837
45152646,2292,2110,2235,2664,1745190595520576837
45153646,2299,2196,2351,2939,1745190595520576837
45154647,2301,2275,2409,3046,1745190595520576837
45155647,2300,2345,2422,3024,1745190595520576837
45156647,2289,2402,2404,2922,1745190595520576837
45157647,2272,2448,2364,2794,1745190595520576837
45158647,2251,2488,2318,2664,1745190595520576837
45159647,2228,2514,2273,2558,1745190595520576837
45160647,2205,2528,2234,2465,1745190595520576837
45161647,2189,2524,2210,2392,1745190595520576837
45162647,2180,2504,2204,2331,1745190595520576837
45163647,2182,2474,2210,2276,1745190595520576837
45164647,2194,2433,2206,2232,1745190595520576837
45165647,2209,2385,2174,2186,1745190595520576837
45166648,2229,2336,2129,2138,1745190595520576837
45167648,2244,2283,2069,2086,1745190595520576837
45168648,2252,2230,2008,2026,1745190595520576837
45169648,2255,2182,1945,1954,1745190595520576837
45170648,2260,2133,1885,1864,1745190595520576837
45171648,2261,2082,1832,1760,1745190595520576837
45172648,2261,2029,1788,1658,1745190595520576837
45173648,2257,1982,1757,1602,1745190595520576837
45174648,2257,1959,1745,1611,1745190595520576837
45175648,2220,1969,1742,1678,1745190595520576837
45176648,2206,2003,1747,1786,1745190595520576837
45177648,2168,2058,1762,1923,1745190595520576837
45178649,2144,2109,1787,2057,1745190595520576837
45179649,2126,2150,1809,2153,1745190595520576837
45180649,2118,2171,1823,2204,1745190595520576837
45181649,2122,2158,1828,2222,1745190595520576837
45182649,2137,2105,1814,2213,1745190595520576837
45183649,2157,2024,1781,2184,1745190595520576837
45184649,2177,1931,1753,2142,1745190595520576837
45185649,2203,1845,1721,2088,1745190595520576837
45186649,2225,1770,1694,2035,1745190595520576837
45187649,2245,1710,1668,1982,1745190595520576837
45188649,2262,1665,1635,1924,1745190595520576837
45189649,2273,1634,1590,1844,1745190595520576837
45190650,2276,1613,1537,1738,1745190595520576837
45191650,2275,1602,1487,1600,1745190595520576837
45192650,2272,1602,1430,1448,1745190595520576837
45193650,2266,1613,1371,1281,1745190595520576837
45194650,2253,1637,1315,1142,1745190595520576837
45195650,2236,1677,1270,1074,1745190595520576837
45196650,2214,1737,1245,1136,1745190595520576837
45197650,2186,1821,1252,1365,1745190595520576837
45198650,2154,1925,1297,1707,1745190595520576837
45199650,2123,2036,1375,2069,1745190595520576837
45200650,2094,2131,1459,2362,1745190595520576837
45201650,2074,2192,1529,2550,1745190595520576837
45202651,2062,2214,1569,2635,1745190595583106110
45203651,2065,2192,1596,2657,1745190595583106110
45204651,2076,2130,1609,2633,1745190595583106110
45205651,2094,2041,1613,2577,1745190595583106110
45206651,2113,1957,1609,2518,1745190595583106110
45207651,2121,1906,1596,2459,1745190595583106110
45208651,2116,1901,1571,2408,1745190595583106110
45209651,2098,1944,1541,2358,1745190595583106110
45210651,2070,2030,1512,2295,1745190595583106110
45211651,2034,2144,1472,2210,1745190595583106110
45212651,1997,2270,1437,2122,1745190595583106110
45213651,1958,2399,1408,2058,1745190595583106110
45214652,1920,2532,1382,2037,1745190595583106110
45215652,1885,2658,1356,2070,1745190595583106110
45216652,1853,2795,1326,2114,1745190595583106110
45217652,1828,2925,1288,2131,1745190595583106110
45218652,1812,3042,1242,2134,1745190595583106110
45219652,1805,3145,1202,2173,1745190595583106110
45220652,1809,3240,1185,2296,1745190595583106110
45221652,1820,3324,1200,2491,1745190595583106110
45222653,1841,3398,1235,2697,1745190595583106110
45223652,1870,3445,1273,2834,1745190595583106110
45224652,1912,3452,1305,2889,1745190595583106110
45225652,1958,3434,1328,2867,1745190595583106110
45226653,2006,3385,1340,2816,1745190595583106110
45227653,2052,3326,1342,2741,1745190595583106110
45228653,2092,3273,1339,2675,1745190595583106110
45229653,2128,3235,1334,2644,1745190595583106110
45230653,2161,3204,1328,2581,1745190595583106110
45231653,2189,3179,1322,2532,1745190595583106110
45232653,2213,3150,1314,2464,1745190595583106110
45233654,2227,3117,1302,2389,1745190595583106110
45234653,2249,3088,1289,2302,1745190595583106110
45235653,2261,3060,1276,2191,1745190595583106110
45236654,2272,3043,1260,2070,1745190595583106110
45237653,2275,3030,1241,1952,1745190595583106110
45238654,2288,3018,1219,1843,1745190595583106110
45239654,2299,2996,1196,1762,1745190595583106110
45240654,2310,2967,1182,1729,1745190595583106110
45241654,2328,2927,1179,1749,1745190595583106110
45242654,2350,2873,1184,1836,1745190595583106110
45243654,2378,2815,1208,1993,1745190595583106110
45244654,2404,2763,1258,2180,1745190595583106110
45245654,2428,2716,1322,2323,1745190595583106110
45246654,2452,2661,1386,2394,1745190595583106110
45247654,2473,2594,1444,2400,1745190595583106110
45248654,2493,2532,1489,2350,1745190595583106110
45249654,2506,2459,1517,2243,1745190595583106110
45250655,2513,2388,1525,2093,1745190595583106110
45251655,2515,2321,1520,1909,1745190595583106110
45252655,2514,2259,1497,1700,1745190595583106110
45253655,2509,2202,1465,1517,1745190595583106110
45254655,2501,2154,1439,1397,1745190595583106110
45255655,2488,2124,1430,1384,1745190595583106110
45256655,2473,2108,1442,1476,1745190595583106110
45257655,2458,2100,1475,1643,1745190595583106110
45258655,2440,2098,1534,1857,1745190595583106110
45259655,2420,2097,1597,2040,1745190595583106110
45260655,2409,2083,1661,2156,1745190595636743589
45261655,2405,2062,1711,2202,1745190595636743589
45262656,2409,2017,1742,2196,1745190595636743589
45263656,2421,1964,1760,2150,1745190595636743589
45264656,2438,1901,1764,2071,1745190595636743589
45265656,2456,1835,1762,1978,1745190595636743589
45266656,2473,1771,1761,1893,1745190595636743589
45267656,2489,1711,1766,1826,1745190595636743589
45268656,2505,1659,1773,1788,1745190595636743589
45269656,2520,1619,1786,1774,1745190595636743589
45270656,2532,1593,1803,1779,1745190595636743589
45271656,2545,1578,1819,1780,1745190595636743589
45272656,2559,1570,1834,1772,1745190595636743589
45273656,2586,1563,1844,1765,1745190595636743589
45274657,2624,1556,1849,1768,1745190595636743589
45275657,2670,1549,1854,1776,1745190595636743589
45276657,2714,1550,1857,1782,1745190595636743589
45277657,2750,1556,1861,1785,1745190595636743589
45278657,2756,1559,1868,1785,1745190595636743589
45279657,2752,1555,1874,1778,1745190595636743589
45280657,2728,1537,1875,1769,1745190595636743589
45281657,2697,1524,1896,1750,1745190595636743589
45282657,2660,1493,1900,1708,1745190595636743589
45283657,2624,1455,1895,1624,1745190595636743589
45284657,2588,1409,1877,1468,1745190595636743589
45285657,2555,1346,1848,1246,1745190595636743589
45286658,2508,1278,1816,1025,1745190595636743589
45287658,2456,1204,1791,869,1745190595636743589
45288658,2402,1126,1780,852,1745190595636743589
45289658,2338,1081,1800,1020,1745190595636743589
45290658,2270,1052,1858,1293,1745190595636743589
45291658,2195,1042,1946,1558,1745190595636743589
45292658,2120,1040,2030,1769,1745190595636743589
45293658,2041,1056,2107,1872,1745190595636743589
45294658,1962,1079,2146,1844,1745190595636743589
45295658,1881,1109,2156,1714,1745190595636743589
45296658,1799,1145,2140,1561,1745190595636743589
45297658,1718,1180,2113,1467,1745190595636743589
45298659,1643,1211,2094,1489,1745190595636743589
45299659,1579,1235,2090,1660,1745190595636743589
45300659,1535,1257,2106,1924,1745190595636743589
45301659,1506,1277,2137,2160,1745190595636743589
45302659,1485,1291,2176,2316,1745190595636743589
45303659,1476,1298,2211,2364,1745190595636743589
45304659,1481,1290,2231,2313,1745190595636743589
45305659,1501,1266,2235,2210,1745190595636743589
45306659,1529,1236,2222,2116,1745190595636743589
45307659,1551,1213,2208,2059,1745190595636743589
45308659,1574,1208,2196,2034,1745190595636743589
45309659,1593,1216,2200,2019,1745190595636743589
45310660,1614,1241,2220,1990,1745190595636743589
45311660,1630,1282,2255,1937,1745190595636743589
45312660,1633,1337,2292,1867,1745190595636743589
45313660,1617,1402,2320,1806,1745190595636743589
45314660,1592,1476,2334,1777,1745190595636743589
45315660,1564,1554,2341,1769,1745190595636743589
45316660,1537,1654,2339,1757,1745190595636743589
45317660,1524,1758,2324,1707,1745190595636743589
45318660,1516,1854,2289,1585,1745190595697699073
45319660,1514,1930,2236,1408,1745190595697699073
45320660,1520,1973,2176,1218,1745190595697699073
45321660,1526,1990,2123,1099,1745190595697699073
45322661,1535,1986,2084,1100,1745190595697699073
45323661,1555,1966,2069,1251,1745190595697699073
45324661,1579,1948,2087,1506,1745190595697699073
45325661,1605,1946,2140,1769,1745190595697699073
45326661,1629,1957,2214,1997,1745190595697699073
45327661,1653,1971,2293,2171,1745190595697699073
45328661,1678,1980,2363,2292,1745190595697699073
45329661,1707,1986,2420,2357,1745190595697699073
45330661,1725,1989,2467,2376,1745190595697699073
45331661,1737,1996,2503,2355,1745190595697699073
45332661,1742,2001,2523,2320,1745190595697699073
45333661,1737,2012,2529,2273,1745190595697699073
45334662,1722,2026,2524,2223,1745190595697699073
45335662,1696,2048,2510,2171,1745190595697699073
45336662,1661,2080,2493,2125,1745190595697699073
45337662,1624,2113,2475,2088,1745190595697699073
45338662,1589,2150,2462,2055,1745190595697699073
45339663,1558,2181,2450,2028,1745190595697699073
45340662,1540,2203,2438,2008,1745190595697699073
45341663,1533,2209,2425,1990,1745190595697699073
45342662,1516,2201,2411,1965,1745190595697699073
45343662,1529,2182,2398,1940,1745190595697699073
45344662,1535,2149,2386,1914,1745190595697699073
45345662,1547,2108,2376,1882,1745190595697699073
45346663,1562,2059,2362,1833,1745190595697699073
45347663,1594,2011,2349,1774,1745190595697699073
45348663,1617,1966,2339,1722,1745190595697699073
45349663,1640,1931,2330,1694,1745190595697699073
45350663,1662,1906,2323,1689,1745190595697699073
45351663,1689,1885,2318,1700,1745190595697699073
45352663,1714,1871,2318,1713,1745190595697699073
45353663,1741,1857,2313,1713,1745190595697699073
45354663,1766,1842,2307,1721,1745190595697699073
45355663,1793,1835,2309,1771,1745190595697699073
45356663,1819,1845,2326,1854,1745190595697699073
45357663,1842,1867,2351,1926,1745190595697699073
45358664,1860,1890,2369,1953,1745190595697699073
45359664,1880,1909,2382,1936,1745190595697699073
45360664,1896,1921,2394,1907,1745190595697699073
45361664,1916,1916,2403,1897,1745190595697699073
45362664,1939,1896,2406,1920,1745190595697699073
45363664,1968,1866,2404,1965,1745190595697699073
45364664,1998,1826,2405,2028,1745190595697699073
45365664,2034,1784,2408,2041,1745190595697699073
45366664,2069,1736,2408,1953,1745190595697699073
45367664,2101,1682,2401,1801,1745190595697699073
45368664,2131,1629,2385,1638,1745190595697699073
45369664,2157,1577,2358,1535,1745190595697699073
45370665,2178,1535,2338,1534,1745190595697699073
45371665,2192,1514,2330,1662,1745190595697699073
45372665,2203,1507,2341,1898,1745190595697699073
45373665,2210,1516,2373,2161,1745190595697699073
45374665,2208,1537,2428,2385,1745190595697699073
45375665,2204,1577,2483,2521,1745190595697699073
45376665,2196,1620,2532,2565,1745190595758504299
45377665,2189,1667,2559,2559,1745190595758504299
45378665,2180,1708,2580,2530,1745190595758504299
45379665,2176,1743,2587,2500,1745190595758504299
45380665,2177,1773,2579,2474,1745190595758504299
45381665,2182,1787,2559,2442,1745190595758504299
45382666,2192,1787,2537,2405,1745190595758504299
45383666,2205,1779,2505,2365,1745190595758504299
45384666,2218,1764,2477,2327,1745190595758504299
45385666,2229,1746,2453,2284,1745190595758504299
45386666,2242,1728,2440,2232,1745190595758504299
45387666,2252,1709,2437,2178,1745190595758504299
45388666,2262,1694,2445,2124,1745190595758504299
45389666,2265,1684,2456,2076,1745190595758504299
45390666,2264,1682,2464,2040,1745190595758504299
45391666,2257,1686,2466,2026,1745190595758504299
45392666,2248,1695,2465,2034,1745190595758504299
45393666,2233,1714,2475,2057,1745190595758504299
45394667,2210,1736,2464,2077,1745190595758504299
45395667,2185,1770,2461,2088,1745190595758504299
45396667,2156,1811,2444,2086,1745190595758504299
45397667,2129,1857,2419,2078,1745190595758504299
45398667,2108,1910,2405,2064,1745190595758504299
45399667,2089,1960,2376,2052,1745190595758504299
45400667,2072,2001,2347,2040,1745190595758504299
45401667,2056,2027,2314,1996,1745190595758504299
45402669,2040,2033,2284,1920,1745190595758504299
45403667,2025,2021,2263,1828,1745190595758504299
45404667,2019,1997,2245,1752,1745190595758504299
45405667,2014,1968,2230,1724,1745190595758504299
45406668,2008,1941,2226,1779,1745190595758504299
45407668,2014,1928,2237,1900,1745190595758504299
45408668,1993,1924,2261,2025,1745190595758504299
45409668,1987,1913,2284,2100,1745190595758504299
45410668,1982,1896,2299,2117,1745190595758504299
45411668,1979,1876,2297,2078,1745190595758504299
45412668,1977,1853,2276,1973,1745190595758504299
45413668,1971,1832,2242,1825,1745190595758504299
45414668,1970,1822,2203,1664,1745190595758504299
45415668,1963,1830,2168,1535,1745190595758504299
45416668,1953,1847,2137,1470,1745190595758504299
45417668,1942,1874,2116,1504,1745190595758504299
45418669,1930,1906,2120,1621,1745190595758504299
45419669,1920,1938,2145,1800,1745190595758504299
45420669,1917,1964,2184,1995,1745190595758504299
45421669,1923,1979,2218,2185,1745190595758504299
45422669,1941,1987,2249,2357,1745190595758504299
45423669,1961,1998,2277,2503,1745190595758504299
45424669,1982,2012,2307,2601,1745190595758504299
45425669,2002,2025,2332,2646,1745190595758504299
45426669,2025,2021,2344,2635,1745190595758504299
45427669,2043,2002,2336,2574,1745190595758504299
45428669,2065,1969,2313,2497,1745190595758504299
45429669,2078,1932,2282,2399,1745190595758504299
45430670,2092,1894,2250,2303,1745190595758504299
45431670,2100,1854,2221,2213,1745190595758504299
45432670,2106,1816,2194,2140,1745190595758504299
45433670,2110,1787,2168,2089,1745190595758504299
45434670,2108,1772,2149,2061,1745190595812264381
45435670,2102,1774,2128,2045,1745190595812264381
45436670,2093,1792,2113,2042,1745190595812264381
45437670,2080,1825,2100,2030,1745190595812264381
45438670,2066,1860,2084,2006,1745190595812264381
45439670,2053,1893,2064,1960,1745190595812264381
45440670,2048,1919,2040,1885,1745190595812264381
45441670,2043,1932,2017,1800,1745190595812264381
45442671,2050,1926,1996,1725,1745190595812264381
45443671,2060,1905,1978,1674,1745190595812264381
45444671,2074,1874,1970,1665,1745190595812264381
45445671,2085,1842,1974,1701,1745190595812264381
45446671,2096,1816,1989,1764,1745190595812264381
45447671,2104,1794,2006,1828,1745190595812264381
45448671,2110,1782,2017,1886,1745190595812264381
45449671,2114,1776,2018,1957,1745190595812264381
45450671,2113,1773,2013,2048,1745190595812264381
45451671,2110,1778,2014,2169,1745190595812264381
45452671,2105,1788,2028,2321,1745190595812264381
45453671,2099,1812,2062,2472,1745190595812264381
45454672,2091,1851,2097,2570,1745190595812264381
45455672,2082,1902,2129,2616,1745190595812264381
45456672,2070,1962,2152,2611,1745190595812264381
45457672,2062,2030,2172,2571,1745190595812264381
45458673,2042,2093,2180,2521,1745190595812264381
45459672,2052,2146,2190,2453,1745190595812264381
45460673,2056,2185,2185,2387,1745190595812264381
45461673,2065,2208,2176,2326,1745190595812264381
45462672,2081,2217,2160,2274,1745190595812264381
45463672,2105,2204,2141,2220,1745190595812264381
45464672,2126,2179,2121,2178,1745190595812264381
45465672,2148,2143,2097,2131,1745190595812264381
45466673,2167,2102,2073,2086,1745190595812264381
45467673,2180,2067,2048,2039,1745190595812264381
45468673,2189,2036,2022,1992,1745190595812264381
45469673,2186,2005,1998,1937,1745190595812264381
45470673,2188,1994,1974,1868,1745190595812264381
45471673,2180,1984,1957,1787,1745190595812264381
45472673,2167,1987,1942,1709,1745190595812264381
45473673,2147,1980,1936,1652,1745190595812264381
45474673,2125,1994,1940,1636,1745190595812264381
45475673,2098,2020,1955,1675,1745190595812264381
45476673,2069,2065,1984,1760,1745190595812264381
45477673,2034,2122,2025,1867,1745190595812264381
45478674,2008,2186,2064,1966,1745190595812264381
45479674,1988,2243,2089,2056,1745190595812264381
45480674,1973,2290,2093,2125,1745190595812264381
45481674,1966,2321,2080,2162,1745190595812264381
45482674,1965,2337,2066,2198,1745190595812264381
45483674,1973,2340,2049,2224,1745190595812264381
45484674,1986,2331,2035,2253,1745190595812264381
45485674,2004,2312,2029,2285,1745190595812264381
45486674,2025,2287,2028,2316,1745190595812264381
45487674,2048,2260,2032,2333,1745190595812264381
45488674,2067,2229,2036,2329,1745190595812264381
45489674,2080,2193,2036,2293,1745190595812264381
45490675,2091,2154,2035,2256,1745190595812264381
45491675,2097,2113,2029,2216,1745190595812264381
45492675,2096,2078,2022,2184,1745190595880515060
45493675,2088,2058,2013,2121,1745190595880515060
45494675,2075,2053,1993,1985,1745190595880515060
45495675,2060,2066,1968,1802,1745190595880515060
45496675,2041,2092,1940,1626,1745190595880515060
45497675,2022,2130,1910,1529,1745190595880515060
45498675,2009,2169,1890,1550,1745190595880515060
45499675,1994,2214,1890,1754,1745190595880515060
45500675,1981,2272,1929,2057,1745190595880515060
45501675,1971,2332,1994,2349,1745190595880515060
45502676,1965,2386,2059,2559,1745190595880515060
45503676,1964,2429,2105,2660,1745190595880515060
45504676,1963,2462,2131,2677,1745190595880515060
45505676,1960,2483,2140,2637,1745190595880515060
45506676,1958,2489,2139,2567,1745190595880515060
45507676,1957,2475,2129,2500,1745190595880515060
45508676,1955,2440,2117,2426,1745190595880515060
45509676,1954,2376,2101,2361,1745190595880515060
45510676,1955,2306,2082,2304,1745190595880515060
45511676,1956,2221,2061,2258,1745190595880515060
45512676,1956,2148,2039,2219,1745190595880515060
45513676,1952,2098,2024,2188,1745190595880515060
45514677,1945,2081,2004,2155,1745190595880515060
45515677,1934,2094,1980,2088,1745190595880515060
45516677,1920,2132,1947,1941,1745190595880515060
45517678,1899,2179,1897,1739,1745190595880515060
45518677,1882,2228,1865,1531,1745190595880515060
45519677,1866,2272,1825,1360,1745190595880515060
45520677,1856,2302,1790,1314,1745190595880515060
45521677,1851,2324,1774,1462,1745190595880515060
45522677,1851,2350,1798,1738,1745190595880515060
45523677,1853,2376,1832,2073,1745190595880515060
45524677,1858,2402,1890,2380,1745190595880515060
45525677,1868,2421,1947,2590,1745190595880515060
45526678,1876,2428,1992,2702,1745190595880515060
45527678,1884,2420,2021,2724,1745190595880515060
45528678,1884,2403,2036,2685,1745190595880515060
45529678,1881,2380,2037,2612,1745190595880515060
45530678,1870,2356,2028,2540,1745190595880515060
45531678,1860,2336,2013,2468,1745190595880515060
45532678,1851,2317,1993,2408,1745190595880515060
45533678,1841,2307,1974,2357,1745190595880515060
45534678,1830,2305,1956,2316,1745190595880515060
45535678,1820,2314,1937,2282,1745190595880515060
45536678,1809,2336,1917,2243,1745190595880515060
45537678,1795,2364,1894,2187,1745190595880515060
45538679,1786,2396,1868,2096,1745190595880515060
45539679,1784,2422,1840,1965,1745190595880515060
45540679,1786,2440,1809,1818,1745190595880515060
45541679,1793,2440,1776,1681,1745190595880515060
45542679,1806,2424,1754,1589,1745190595880515060
45543679,1824,2396,1746,1573,1745190595880515060
45544679,1844,2362,1758,1653,1745190595880515060
45545679,1867,2327,1788,1813,1745190595880515060
45546679,1889,2296,1830,2006,1745190595880515060
45547679,1909,2266,1876,2195,1745190595880515060
45548679,1926,2243,1931,2354,1745190595880515060
45549679,1940,2232,1978,2473,1745190595880515060
45550680,1949,2219,2012,2549,1745190595929081751
45551680,1953,2216,2030,2571,1745190595929081751
45552680,1953,2208,2033,2560,1745190595929081751
45553680,1947,2200,2027,2528,1745190595929081751
45554680,1940,2195,2019,2478,1745190595929081751
45555680,1926,2204,2008,2428,1745190595929081751
45556680,1910,2225,1994,2382,1745190595929081751
45557680,1896,2260,1980,2344,1745190595929081751
45558680,1880,2294,1964,2313,1745190595929081751
45559680,1868,2329,1949,2286,1745190595929081751
45560680,1861,2357,1934,2235,1745190595929081751
45561680,1861,2369,1917,2137,1745190595929081751
45562681,1866,2363,1898,1993,1745190595929081751
45563681,1880,2338,1874,1848,1745190595929081751
45564682,1901,2299,1851,1747,1745190595929081751
45565681,1924,2254,1830,1729,1745190595929081751
45566683,1945,2211,1820,1793,1745190595929081751
45567681,1971,2179,1819,1880,1745190595929081751
45568681,1994,2159,1818,1930,1745190595929081751
45569681,2014,2146,1819,1945,1745190595929081751
45570681,2029,2139,1822,1952,1745190595929081751
45571681,2040,2141,1830,1966,1745190595929081751
45572681,2048,2152,1849,2002,1745190595929081751
45573681,2052,2166,1883,2070,1745190595929081751
45574682,2056,2189,1930,2153,1745190595929081751
45575682,2058,2216,1977,2242,1745190595929081751
45576682,2058,2253,2020,2350,1745190595929081751
45577682,2050,2302,2059,2472,1745190595929081751
45578683,2044,2353,2088,2564,1745190595929081751
45579682,2044,2401,2107,2622,1745190595929081751
45580682,2041,2435,2116,2632,1745190595929081751
45581682,2048,2453,2114,2603,1745190595929081751
45582682,2052,2449,2100,2554,1745190595929081751
45583682,2061,2429,2086,2479,1745190595929081751
45584682,2060,2395,2060,2393,1745190595929081751
45585682,2076,2356,2035,2280,1745190595929081751
45586683,2089,2314,2015,2165,1745190595929081751
45587683,2104,2268,1995,2065,1745190595929081751
45588683,2115,2224,1976,1982,1745190595929081751
45589683,2120,2189,1961,1920,1745190595929081751
45590683,2120,2166,1954,1855,1745190595929081751
45591683,2113,2160,1953,1811,1745190595929081751
45592683,2105,2163,1955,1765,1745190595929081751
45593683,2098,2172,1954,1757,1745190595929081751
45594683,2092,2186,1956,1817,1745190595929081751
45595683,2082,2213,1958,1929,1745190595929081751
45596683,2068,2257,1974,2037,1745190595929081751
45597683,2050,2309,2001,2113,1745190595929081751
45598684,2033,2366,2034,2156,1745190595929081751
45599684,2024,2413,2064,2193,1745190595929081751
45600684,2027,2448,2086,2246,1745190595929081751
45601684,2048,2464,2105,2329,1745190595929081751
45602684,2083,2464,2120,2410,1745190595929081751
45603684,2133,2453,2126,2456,1745190595929081751
45604684,2189,2427,2128,2461,1745190595929081751
45605684,2250,2390,2121,2435,1745190595929081751
45606684,2310,2345,2110,2384,1745190595929081751
45607684,2368,2300,2100,2324,1745190595929081751
45608684,2420,2258,2090,2266,1745190595989385211
45609684,2461,2222,2080,2216,1745190595989385211
45610685,2492,2194,2070,2170,1745190595989385211
45611685,2510,2172,2059,2127,1745190595989385211
45612685,2518,2156,2041,2072,1745190595989385211
45613685,2514,2146,2020,1982,1745190595989385211
45614685,2499,2144,1989,1856,1745190595989385211
45615685,2470,2149,1949,1697,1745190595989385211
45616685,2434,2166,1905,1518,1745190595989385211
45617685,2387,2194,1860,1345,1745190595989385211
45618685,2339,2228,1832,1256,1745190595989385211
45619685,2291,2265,1828,1301,1745190595989385211
45620685,2248,2300,1852,1496,1745190595989385211
45621685,2213,2325,1902,1796,1745190595989385211
45622686,2192,2340,1974,2158,1745190595989385211
45623686,2182,2341,2056,2473,1745190595989385211
45624686,2184,2322,2128,2665,1745190595989385211
45625686,2192,2285,2180,2741,1745190595989385211
45626686,2216,2237,2205,2725,1745190595989385211
45627686,2244,2186,2209,2652,1745190595989385211
45628686,2272,2136,2200,2559,1745190595989385211
45629686,2292,2093,2182,2468,1745190595989385211
45630686,2302,2062,2162,2380,1745190595989385211
45631686,2304,2036,2138,2301,1745190595989385211
45632686,2293,2017,2114,2234,1745190595989385211
45633686,2274,2005,2088,2178,1745190595989385211
45634687,2246,1998,2065,2133,1745190595989385211
45635687,2209,2015,2049,2105,1745190595989385211
45636687,2165,2044,2036,2091,1745190595989385211
45637687,2122,2082,2028,2085,1745190595989385211
45638687,2080,2118,2020,2081,1745190595989385211
45639687,2042,2158,2020,2077,1745190595989385211
45640687,2012,2163,1994,2052,1745190595989385211
45641687,1993,2163,1980,2008,1745190595989385211
45642687,1984,2144,1967,1955,1745190595989385211
45643687,1982,2109,1956,1905,1745190595989385211
45644687,1993,2066,1949,1875,1745190595989385211
45645687,2006,2019,1953,1873,1745190595989385211
45646688,2020,1987,1962,1885,1745190595989385211
45647688,2034,1961,1982,1878,1745190595989385211
45648688,2050,1937,1981,1841,1745190595989385211
45649688,2061,1914,1987,1806,1745190595989385211
45650688,2073,1897,1988,1796,1745190595989385211
45651688,2086,1880,1987,1808,1745190595989385211
45652688,2095,1864,1985,1835,1745190595989385211
45653688,2103,1853,1986,1882,1745190595989385211
45654688,2112,1856,1997,1940,1745190595989385211
45655688,2114,1877,2013,1997,1745190595989385211
45656688,2112,1915,2029,2039,1745190595989385211
45657688,2106,1960,2039,2072,1745190595989385211
45658689,2097,2006,2044,2099,1745190595989385211
45659689,2089,2048,2049,2131,1745190595989385211
45660689,2084,2077,2054,2156,1745190595989385211
45661689,2082,2090,2063,2165,1745190595989385211
45662689,2082,2086,2076,2158,1745190595989385211
45663689,2087,2064,2087,2126,1745190595989385211
45664689,2097,2030,2091,2077,1745190595989385211
45665689,2109,1993,2091,2020,1745190595989385211
45666689,2117,1950,2086,1972,1745190596052320626
45667689,2133,1906,2080,1939,1745190596052320626
45668689,2145,1862,2066,1924,1745190596052320626
45669689,2156,1826,2056,1917,1745190596052320626
45670690,2163,1796,2041,1901,1745190596052320626
45671690,2167,1776,2022,1846,1745190596052320626
45672690,2169,1763,2002,1746,1745190596052320626
45673690,2166,1760,1982,1633,1745190596052320626
45674690,2163,1762,1965,1548,1745190596052320626
45675690,2156,1778,1952,1529,1745190596052320626
45676690,2144,1808,1944,1568,1745190596052320626
45677690,2132,1848,1947,1677,1745190596052320626
45678690,2119,1898,1965,1794,1745190596052320626
45679690,2105,1951,1995,1875,1745190596052320626
45680690,2094,1989,2028,1915,1745190596052320626
45681690,2091,2008,2061,1947,1745190596052320626
45682691,2093,2005,2084,1994,1745190596052320626
45683691,2102,1990,2099,2061,1745190596052320626
45684691,2115,1964,2114,2121,1745190596052320626
45685691,2130,1934,2126,2156,1745190596052320626
45686691,2145,1901,2134,2160,1745190596052320626
45687691,2158,1867,2138,2144,1745190596052320626
45688691,2173,1833,2136,2122,1745190596052320626
45689691,2181,1803,2132,2107,1745190596052320626
45690691,2187,1779,2128,2102,1745190596052320626
45691691,2188,1762,2122,2095,1745190596052320626
45692691,2187,1750,2114,2081,1745190596052320626
45693691,2180,1746,2103,2072,1745190596052320626
45694692,2168,1748,2082,2050,1745190596052320626
45695692,2151,1748,2104,2042,1745190596052320626
45696692,2130,1766,2112,2044,1745190596052320626
45697692,2108,1791,2122,2043,1745190596052320626
45698692,2086,1823,2131,2032,1745190596052320626
45699692,2070,1857,2133,2016,1745190596052320626
45700692,2063,1883,2128,1955,1745190596052320626
45701692,2063,1897,2115,1885,1745190596052320626
45702692,2071,1899,2094,1791,1745190596052320626
45703692,2084,1874,2068,1676,1745190596052320626
45704692,2100,1842,2043,1559,1745190596052320626
45705693,2117,1806,2024,1473,1745190596052320626
45706693,2133,1771,2009,1430,1745190596052320626
45707693,2147,1740,2004,1478,1745190596052320626
45708693,2154,1721,2013,1613,1745190596052320626
45709693,2156,1716,2038,1803,1745190596052320626
45710693,2151,1722,2081,1984,1745190596052320626
45711693,2145,1733,2130,2113,1745190596052320626
45712693,2138,1744,2171,2178,1745190596052320626
45713693,2130,1758,2200,2192,1745190596052320626
45714693,2117,1773,2214,2180,1745190596052320626
45715693,2104,1797,2219,2170,1745190596052320626
45716693,2086,1835,2224,2165,1745190596052320626
45717693,2065,1883,2226,2166,1745190596052320626
45718694,2040,1930,2226,2160,1745190596052320626
45719694,2020,1970,2220,2141,1745190596052320626
45720694,2005,1999,2211,2116,1745190596052320626
45721694,1995,2018,2202,2093,1745190596052320626
45722694,1994,2028,2192,2065,1745190596052320626
45723694,2002,2028,2186,2008,1745190596052320626
45724694,2016,2014,2177,1921,1745190596111794405
45725694,2037,1990,2165,1816,1745190596111794405
45726694,2059,1959,2152,1707,1745190596111794405
45727694,2076,1924,2118,1573,1745190596111794405
45728694,2088,1888,2098,1421,1745190596111794405
45729694,2096,1856,2074,1266,1745190596111794405
45730695,2099,1832,2041,1165,1745190596111794405
45731695,2099,1817,2024,1187,1745190596111794405
45732695,2093,1817,2025,1381,1745190596111794405
45733695,2083,1839,2058,1704,1745190596111794405
45734695,2069,1881,2109,2061,1745190596111794405
45735695,2044,1947,2163,2360,1745190596111794405
45736695,2021,2026,2216,2560,1745190596111794405
45737695,1996,2105,2263,2675,1745190596111794405
45738695,1971,2174,2298,2710,1745190596111794405
45739695,1952,2226,2315,2683,1745190596111794405
45740695,1939,2262,2315,2617,1745190596111794405
45741695,1935,2278,2300,2537,1745190596111794405
45742696,1937,2274,2277,2440,1745190596111794405
45743696,1946,2253,2253,2339,1745190596111794405
45744696,1960,2226,2229,2242,1745190596111794405
45745696,1975,2186,2210,2156,1745190596111794405
45746696,1992,2144,2198,2095,1745190596111794405
45747696,2005,2106,2197,2062,1745190596111794405
45748696,2017,2074,2196,2048,1745190596111794405
45749696,2024,2048,2198,2043,1745190596111794405
45750696,2027,2025,2209,2041,1745190596111794405
45751696,2026,2012,2195,2037,1745190596111794405
45752696,2025,2002,2190,2019,1745190596111794405
45753697,2019,1995,2182,1985,1745190596111794405
45754697,2012,1994,2177,1952,1745190596111794405
45755697,2002,2003,2174,1924,1745190596111794405
45756697,1984,2018,2172,1921,1745190596111794405
45757697,1963,2049,2169,1929,1745190596111794405
45758697,1946,2067,2171,1974,1745190596111794405
45759697,1932,2100,2174,2045,1745190596111794405
45760697,1925,2137,2185,2114,1745190596111794405
45761697,1925,2162,2194,2163,1745190596111794405
45762697,1933,2169,2206,2192,1745190596111794405
45763697,1948,2158,2191,2197,1745190596111794405
45764697,1968,2130,2186,2190,1745190596111794405
45765697,1989,2092,2184,2173,1745190596111794405
45766698,2009,2044,2186,2154,1745190596111794405
45767698,2027,1995,2193,2137,1745190596111794405
45768698,2043,1950,2197,2120,1745190596111794405
45769698,2058,1910,2197,2099,1745190596111794405
45770698,2065,1880,2194,2067,1745190596111794405
45771698,2068,1857,2189,2024,1745190596111794405
45772698,2072,1845,2180,1972,1745190596111794405
45773698,2070,1844,2169,1911,1745190596111794405
45774698,2065,1855,2153,1843,1745190596111794405
45775698,2056,1878,2133,1782,1745190596111794405
45776698,2042,1916,2110,1739,1745190596111794405
45777698,2027,1964,2088,1732,1745190596111794405
45778699,2013,2015,2072,1785,1745190596111794405
45779699,2004,2072,2075,1893,1745190596111794405
45780699,1996,2131,2096,2019,1745190596111794405
45781699,1988,2184,2124,2105,1745190596111794405
45782699,1988,2218,2145,2101,1745190596187792774
45783699,1994,2225,2147,2005,1745190596187792774
45784699,2006,2208,2142,1875,1745190596187792774
45785699,2022,2172,2131,1785,1745190596187792774
45786699,2037,2133,2128,1793,1745190596187792774
45787699,2054,2105,2133,1921,1745190596187792774
45788699,2067,2095,2154,2137,1745190596187792774
45789699,2079,2105,2197,2363,1745190596187792774
45790700,2085,2130,2250,2532,1745190596187792774
45791700,2088,2155,2290,2603,1745190596187792774
45792700,2088,2175,2308,2603,1745190596187792774
45793700,2083,2189,2306,2559,1745190596187792774
45794700,2078,2205,2284,2497,1745190596187792774
45795700,2068,2226,2254,2438,1745190596187792774
45796700,2054,2256,2222,2393,1745190596187792774
45797700,2033,2289,2194,2355,1745190596187792774
45798700,2014,2322,2168,2308,1745190596187792774
45799700,1998,2353,2145,2255,1745190596187792774
45800700,1986,2377,2118,2202,1745190596187792774
45801700,1982,2389,2098,2142,1745190596187792774
45802702,1985,2381,2080,2050,1745190596187792774
45803701,1994,2360,2061,1909,1745190596187792774
45804701,2009,2324,2036,1747,1745190596187792774
45805701,2025,2276,2011,1604,1745190596187792774
45806701,2045,2221,1988,1537,1745190596187792774
45807701,2064,2171,1980,1605,1745190596187792774
45808701,2077,2138,1997,1800,1745190596187792774
45809701,2083,2125,2032,2032,1745190596187792774
45810701,2088,2122,2068,2219,1745190596187792774
45811701,2088,2121,2090,2332,1745190596187792774
45812701,2085,2121,2100,2368,1745190596187792774
45813701,2083,2119,2096,2364,1745190596187792774
45814702,2077,2123,2092,2341,1745190596187792774
45815702,2070,2136,2076,2322,1745190596187792774
45816702,2057,2163,2058,2315,1745190596187792774
45817702,2037,2201,2041,2317,1745190596187792774
45818702,2023,2244,2027,2326,1745190596187792774
45819702,2008,2282,2018,2331,1745190596187792774
45820702,1997,2312,2009,2326,1745190596187792774
45821702,1988,2326,2001,2314,1745190596187792774
45822702,1990,2324,1996,2294,1745190596187792774
45823702,1997,2308,1989,2270,1745190596187792774
45824702,2010,2281,1980,2240,1745190596187792774
45825702,2025,2245,1970,2198,1745190596187792774
45826703,2042,2203,1960,2149,1745190596187792774
45827703,2059,2163,1950,2094,1745190596187792774
45828703,2072,2129,1939,2030,1745190596187792774
45829703,2067,2099,1923,1967,1745190596187792774
45830703,2078,2077,1902,1915,1745190596187792774
45831703,2080,2067,1885,1885,1745190596187792774
45832703,2076,2065,1874,1882,1745190596187792774
45833703,2068,2070,1869,1903,1745190596187792774
45834703,2060,2085,1865,1926,1745190596187792774
45835703,2048,2108,1859,1925,1745190596187792774
45836703,2032,2140,1853,1900,1745190596187792774
45837703,2013,2177,1847,1868,1745190596187792774
45838704,2003,2214,1843,1851,1745190596187792774
45839704,1995,2251,1844,1888,1745190596187792774
45840704,1987,2287,1860,1986,1745190596226828094
45841704,1982,2324,1891,2101,1745190596226828094
45842704,1982,2353,1932,2185,1745190596226828094
45843704,1990,2355,1973,2225,1745190596226828094
45844704,2009,2322,2002,2236,1745190596226828094
45845704,2031,2267,2019,2244,1745190596226828094
45846704,2059,2201,2018,2256,1745190596226828094
45847704,2083,2138,2012,2265,1745190596226828094
45848704,2102,2082,1998,2258,1745190596226828094
45849704,2116,2037,1986,2234,1745190596226828094
45850705,2124,2006,1974,2200,1745190596226828094
45851705,2125,1986,1966,2155,1745190596226828094
45852705,2122,1971,1954,2080,1745190596226828094
45853705,2117,1964,1935,1971,1745190596226828094
45854705,2113,1964,1915,1857,1745190596226828094
45855705,2105,1975,1901,1770,1745190596226828094
45856705,2090,2000,1886,1733,1745190596226828094
45857705,2073,2035,1873,1744,1745190596226828094
45858705,2054,2080,1866,1790,1745190596226828094
45859705,2035,2124,1872,1859,1745190596226828094
45860705,2021,2162,1891,1933,1745190596226828094
45861705,2016,2181,1912,2001,1745190596226828094
45862706,2018,2178,1926,2075,1745190596226828094
45863706,2029,2164,1936,2155,1745190596226828094
45864706,2044,2147,1948,2232,1745190596226828094
45865706,2060,2128,1955,2273,1745190596226828094
45866706,2080,2100,1955,2267,1745190596226828094
45867706,2096,2065,1948,2221,1745190596226828094
45868706,2108,2028,1934,2155,1745190596226828094
45869706,2120,1996,1916,2075,1745190596226828094
45870706,2127,1969,1891,1984,1745190596226828094
45871706,2131,1948,1867,1898,1745190596226828094
45872707,2132,1943,1848,1827,1745190596226828094
45873706,2128,1930,1839,1782,1745190596226828094
45874707,2120,1937,1834,1771,1745190596226828094
45875707,2110,1956,1837,1804,1745190596226828094
45876707,2097,1996,1849,1881,1745190596226828094
45877707,2081,2049,1870,1984,1745190596226828094
45878707,2064,2096,1897,2097,1745190596226828094
45879707,2049,2139,1928,2196,1745190596226828094
45880707,2037,2169,1956,2272,1745190596226828094
45881707,2033,2178,1971,2301,1745190596226828094
45882707,2038,2161,1976,2282,1745190596226828094
45883707,2052,2121,1972,2238,1745190596226828094
45884707,2067,2067,1966,2193,1745190596226828094
45885707,2084,2008,1957,2161,1745190596226828094
45886708,2101,1951,1950,2145,1745190596226828094
45887708,2115,1905,1946,2139,1745190596226828094
45888708,2127,1868,1946,2130,1745190596226828094
45889708,2133,1838,1952,2112,1745190596226828094
45890708,2136,1816,1957,2089,1745190596226828094
45891708,2132,1802,1961,2064,1745190596226828094
45892708,2130,1794,1964,2045,1745190596226828094
45893708,2117,1795,1965,2013,1745190596226828094
45894708,2112,1808,1967,1997,1745190596226828094
45895710,2097,1840,1965,1988,1745190596226828094
45896708,2082,1881,1964,1982,1745190596226828094
45897709,2056,1928,1961,1977,1745190596226828094
45898709,2040,1970,1957,1976,1745190596289974080
45899709,2035,2005,1935,1908,1745190596289974080
45900709,2011,2026,1904,1810,1745190596289974080
45901709,2008,2022,1868,1635,1745190596289974080
45902709,2014,2000,1829,1454,1745190596289974080
45903709,2028,1958,1793,1298,1745190596289974080
45904709,2049,1910,1770,1227,1745190596289974080
45905709,2066,1875,1773,1296,1745190596289974080
45906709,2076,1854,1811,1491,1745190596289974080
45907709,2081,1850,1876,1726,1745190596289974080
45908709,2084,1851,1948,1949,1745190596289974080
45909709,2088,1849,2006,2121,1745190596289974080
45910710,2092,1844,2044,2236,1745190596289974080
45911710,2093,1840,2065,2305,1745190596289974080
45912710,2089,1840,2072,2331,1745190596289974080
45913710,2084,1846,2070,2326,1745190596289974080
45914710,2072,1864,2070,2308,1745190596289974080
