timestamp,emg0,emg1,emg2,emg3,pkt_time_ns
4948293,2107,2006,2100,2164,1745225166822447883
4949291,2114,2001,2108,2187,1745225166822447883
4950291,2121,1995,2112,2198,1745225166822447883
4951291,2126,1995,2115,2207,1745225166822447883
4952291,2128,1997,2114,2211,1745225166822447883
4953291,2125,2001,2112,2210,1745225166822447883
4954291,2115,2005,2108,2195,1745225166822447883
4955291,2096,2007,2096,2158,1745225166822447883
4956291,2073,2006,2073,2098,1745225166822447883
4957291,2048,2002,2041,2026,1745225166822447883
4958291,2018,1999,2010,1954,1745225166822447883
4959291,1996,1992,1981,1892,1745225166822447883
4960292,1976,1982,1959,1850,1745225166822447883
4961292,1966,1978,1949,1834,1745225166822447883
4962292,1968,1990,1953,1851,1745225166822447883
4963292,1981,2015,1970,1902,1745225166822447883
4964292,2001,2051,1998,1970,1745225166822447883
4965292,2024,2083,2030,2037,1745225166822447883
4966292,2043,2107,2062,2096,1745225166822447883
4967292,2059,2119,2086,2139,1745225166822447883
4968292,2069,2114,2102,2169,1745225166822447883
4969292,2082,2098,2108,2185,1745225166822447883
4970292,2097,2076,2108,2194,1745225166822447883
4971292,2112,2064,2104,2197,1745225166822447883
4972293,2121,2057,2097,2197,1745225166822447883
4973293,2128,2048,2088,2190,1745225166822447883
4974293,2125,2038,2078,2167,1745225166822447883
4975293,2109,2033,2063,2123,1745225166822447883
4976293,2082,2030,2041,2058,1745225166822447883
4977293,2052,2027,2013,1977,1745225166822447883
4978293,2021,2018,1985,1899,1745225166822447883
4979293,1997,2016,1962,1836,1745225166822447883
4980293,1977,2017,1944,1793,1745225166822447883
4981293,1964,2030,1938,1780,1745225166822447883
4982293,1960,2058,1944,1802,1745225166822447883
4983293,1964,2090,1963,1855,1745225166822447883
4984294,1977,2122,1994,1928,1745225166822447883
4985294,1993,2150,2022,2002,1745225166822447883
4986294,2013,2173,2045,2065,1745225166822447883
4987294,2035,2189,2058,2109,1745225166822447883
4988294,2060,2196,2060,2137,1745225166822447883
4989294,2082,2197,2058,2153,1745225166822447883
4990294,2101,2195,2053,2161,1745225166822447883
4991294,2113,2190,2044,2163,1745225166822447883
4992294,2117,2184,2035,2161,1745225166822447883
4993294,2112,2177,2026,2157,1745225166822447883
4994294,2098,2169,2011,2137,1745225166822447883
4995294,2078,2152,1981,2094,1745225166822447883
4996295,2056,2126,1938,2028,1745225166822447883
4997295,2034,2097,1893,1954,1745225166822447883
4998295,2020,2066,1862,1887,1745225166822447883
4999295,2005,2042,1853,1836,1745225166822447883
5000295,1994,2026,1864,1804,1745225166822447883
5001295,1987,2020,1898,1800,1745225166822447883
5002295,1990,2025,1950,1825,1745225166822447883
5003295,2000,2037,2011,1881,1745225166822447883
5004295,2012,2060,2076,1956,1745225166822447883
5005295,2026,2085,2136,2033,1745225166822447883
5006295,2032,2107,2181,2102,1745225166862897149
5007295,2037,2126,2213,2154,1745225166862897149
5008296,2043,2139,2233,2192,1745225166862897149
5009296,2051,2145,2246,2215,1745225166862897149
5010296,2056,2147,2252,2227,1745225166862897149
5011296,2060,2147,2253,2233,1745225166862897149
5012296,2064,2142,2250,2233,1745225166862897149
5013296,2064,2144,2244,2226,1745225166862897149
5014296,2061,2141,2233,2203,1745225166862897149
5015297,2054,2131,2213,2157,1745225166862897149
5016296,2033,2113,2185,2094,1745225166862897149
5017296,2016,2087,2147,2020,1745225166862897149
5018296,2002,2064,2110,1952,1745225166862897149
5019296,1986,2044,2080,1897,1745225166862897149
5020297,1972,2037,2057,1861,1745225166862897149
5021297,1965,2035,2040,1849,1745225166862897149
5022297,1969,2042,2037,1868,1745225166862897149
5023297,1989,2048,2060,1914,1745225166862897149
5024297,2020,2050,2062,1980,1745225166862897149
5025297,2057,2048,2080,2051,1745225166862897149
5026297,2090,2048,2097,2110,1745225166862897149
5027297,2114,2044,2110,2158,1745225166862897149
5028297,2128,2043,2117,2188,1745225166862897149
5029297,2140,2048,2121,2205,1745225166862897149
5030297,2140,2050,2121,2225,1745225166862897149
5031297,2134,2051,2118,2213,1745225166862897149
5032298,2126,2051,2115,2210,1745225166862897149
5033298,2120,2048,2112,2198,1745225166862897149
5034298,2106,2041,2104,2173,1745225166862897149
5035298,2089,2028,2088,2129,1745225166862897149
5036298,2066,2011,2065,2067,1745225166862897149
5037298,2034,1995,2034,1998,1745225166862897149
5038298,2004,1981,2006,1935,1745225166862897149
5039298,1982,1965,1982,1882,1745225166862897149
5040298,1971,1946,1964,1846,1745225166862897149
5041298,1969,1931,1955,1828,1745225166862897149
5042298,1966,1928,1957,1854,1745225166862897149
5043298,1990,1937,1971,1902,1745225166862897149
5044299,2013,1963,1997,1966,1745225166862897149
5045299,2036,2000,2025,2030,1745225166862897149
5046299,2059,2030,2050,2082,1745225166862897149
5047299,2077,2052,2067,2121,1745225166862897149
5048299,2092,2060,2079,2145,1745225166862897149
5049299,2102,2054,2085,2160,1745225166862897149
5050299,2108,2043,2088,2166,1745225166862897149
5051299,2114,2033,2088,2166,1745225166862897149
5052299,2115,2026,2084,2163,1745225166862897149
5053299,2115,2024,2080,2157,1745225166862897149
5054299,2105,2026,2070,2138,1745225166862897149
5055299,2096,2029,2057,2100,1745225166862897149
5056300,2067,2028,2030,2042,1745225166862897149
5057300,2041,2020,2001,1982,1745225166862897149
5058300,2021,2010,1973,1932,1745225166862897149
5059300,2005,2005,1952,1898,1745225166862897149
5060300,1994,1999,1937,1884,1745225166862897149
5061300,1989,1994,1933,1894,1745225166862897149
5062300,1996,1995,1942,1930,1745225166862897149
5063300,2013,1996,1963,1985,1745225166862897149
5064300,2036,2000,1994,2054,1745225166925296892
5065300,2064,2004,2025,2120,1745225166925296892
5066300,2086,2011,2053,2173,1745225166925296892
5067300,2104,2013,2074,2213,1745225166925296892
5068301,2116,2024,2086,2234,1745225166925296892
5069301,2123,2030,2095,2240,1745225166925296892
5070301,2125,2044,2099,2235,1745225166925296892
5071301,2130,2067,2100,2225,1745225166925296892
5072302,2128,2090,2096,2209,1745225166925296892
5073301,2131,2104,2090,2186,1745225166925296892
5074301,2128,2112,2082,2145,1745225166925296892
5075303,2107,2114,2065,2076,1745225166925296892
5076303,2077,2110,2044,2005,1745225166925296892
5077301,2044,2095,2015,1923,1745225166925296892
5078301,2019,2072,1984,1844,1745225166925296892
5079301,1999,2049,1957,1786,1745225166925296892
5080302,1985,2028,1941,1753,1745225166925296892
5081302,1981,2018,1936,1746,1745225166925296892
5082302,1985,2022,1948,1781,1745225166925296892
5083302,1997,2040,1973,1843,1745225166925296892
5084302,2013,2066,2006,1925,1745225166925296892
5085302,2032,2090,2041,2006,1745225166925296892
5086302,2052,2112,2073,2077,1745225166925296892
5087302,2067,2125,2094,2128,1745225166925296892
5088302,2077,2136,2108,2158,1745225166925296892
5089302,2085,2134,2114,2177,1745225166925296892
5090302,2097,2125,2113,2184,1745225166925296892
5091302,2109,2114,2109,2185,1745225166925296892
5092303,2120,2104,2104,2179,1745225166925296892
5093303,2121,2102,2100,2164,1745225166925296892
5094303,2108,2107,2096,2134,1745225166925296892
5095303,2082,2113,2083,2086,1745225166925296892
5096303,2050,2112,2061,2024,1745225166925296892
5097303,2016,2101,2032,1957,1745225166925296892
5098303,1988,2088,2008,1901,1745225166925296892
5099303,1968,2075,1988,1860,1745225166925296892
5100303,1953,2065,1976,1841,1745225166925296892
5101303,1954,2062,1973,1846,1745225166925296892
5102303,1966,2065,1979,1881,1745225166925296892
5103303,1992,2062,1998,1940,1745225166925296892
5104304,2021,2064,2025,2013,1745225166925296892
5105304,2053,2065,2053,2084,1745225166925296892
5106304,2076,2066,2075,2141,1745225166925296892
5107304,2094,2062,2091,2179,1745225166925296892
5108304,2106,2057,2100,2200,1745225166925296892
5109304,2116,2056,2104,2206,1745225166925296892
5110304,2122,2061,2105,2203,1745225166925296892
5111304,2125,2077,2104,2188,1745225166925296892
5112304,2126,2092,2104,2165,1745225166925296892
5113304,2117,2103,2104,2141,1745225166925296892
5114304,2101,2106,2098,2108,1745225166925296892
5115304,2081,2094,2086,2064,1745225166925296892
5116305,2056,2075,2065,2004,1745225166925296892
5117305,2029,2051,2038,1944,1745225166925296892
5118305,2009,2026,2016,1891,1745225166925296892
5119305,1992,2009,1997,1857,1745225166925296892
5120305,1978,2003,1985,1844,1745225166925296892
5121305,1970,2014,1984,1857,1745225166925296892
5122305,1972,2029,1994,1894,1745225166979795248
5123305,1987,2043,2014,1952,1745225166979795248
5124305,2005,2061,2043,2025,1745225166979795248
5125305,2020,2080,2074,2096,1745225166979795248
5126305,2036,2093,2098,2154,1745225166979795248
5127305,2049,2102,2118,2197,1745225166979795248
5128306,2055,2111,2133,2226,1745225166979795248
5129306,2058,2112,2142,2240,1745225166979795248
5130307,2065,2098,2146,2240,1745225166979795248
5131306,2076,2080,2144,2238,1745225166979795248
5132306,2089,2058,2139,2233,1745225166979795248
5133306,2095,2032,2130,2222,1745225166979795248
5134307,2093,2020,2122,2208,1745225166979795248
5135306,2081,1998,2101,2137,1745225166979795248
5136306,2064,1982,2067,2062,1745225166979795248
5137306,2040,1968,2033,1981,1745225166979795248
5138306,2021,1953,2000,1903,1745225166979795248
5139306,2005,1948,1974,1844,1745225166979795248
5140307,1990,1947,1956,1807,1745225166979795248
5141307,1980,1957,1952,1798,1745225166979795248
5142307,1978,1979,1961,1821,1745225166979795248
5143307,1984,2014,1984,1875,1745225166979795248
5144307,1986,2064,2016,1944,1745225166979795248
5145307,2001,2116,2050,2020,1745225166979795248
5146307,2008,2153,2078,2086,1745225166979795248
5147307,2016,2185,2101,2139,1745225166979795248
5148307,2020,2207,2119,2173,1745225166979795248
5149307,2024,2222,2130,2196,1745225166979795248
5150307,2032,2230,2133,2208,1745225166979795248
5151307,2048,2228,2130,2209,1745225166979795248
5152308,2065,2218,2123,2205,1745225166979795248
5153308,2083,2201,2115,2192,1745225166979795248
5154308,2090,2180,2106,2162,1745225166979795248
5155308,2082,2149,2090,2110,1745225166979795248
5156308,2065,2119,2066,2041,1745225166979795248
5157308,2040,2078,2036,1971,1745225166979795248
5158308,2018,2043,2009,1906,1745225166979795248
5159308,2001,2013,1986,1860,1745225166979795248
5160308,1989,1988,1971,1836,1745225166979795248
5161308,1987,1972,1968,1843,1745225166979795248
5162308,1995,1969,1978,1884,1745225166979795248
5163308,2009,1984,2003,1957,1745225166979795248
5164309,2022,2014,2039,2044,1745225166979795248
5165309,2030,2054,2078,2124,1745225166979795248
5166309,2037,2089,2107,2185,1745225166979795248
5167309,2042,2117,2128,2222,1745225166979795248
5168309,2048,2138,2140,2241,1745225166979795248
5169309,2056,2148,2141,2242,1745225166979795248
5170309,2070,2141,2136,2232,1745225166979795248
5171309,2091,2123,2124,2218,1745225166979795248
5172309,2110,2100,2113,2206,1745225166979795248
5173309,2125,2080,2102,2193,1745225166979795248
5174309,2131,2059,2089,2166,1745225166979795248
5175309,2128,2030,2070,2122,1745225166979795248
5176310,2116,1998,2049,2063,1745225166979795248
5177310,2101,1966,2026,1999,1745225166979795248
5178310,2084,1940,2010,1944,1745225166979795248
5179310,2065,1918,1995,1899,1745225166979795248
5180310,2049,1902,1986,1872,1745225167040154749
5181310,2038,1897,1984,1869,1745225167040154749
5182310,2033,1908,1994,1898,1745225167040154749
5183310,2036,1940,2019,1954,1745225167040154749
5184310,2035,1985,2054,2020,1745225167040154749
5185310,2035,2030,2088,2078,1745225167040154749
5186310,2037,2065,2112,2121,1745225167040154749
5187310,2043,2084,2126,2145,1745225167040154749
5188311,2059,2091,2126,2157,1745225167040154749
5189311,2074,2084,2123,2164,1745225167040154749
5190311,2085,2070,2117,2169,1745225167040154749
5191311,2093,2062,2109,2171,1745225167040154749
5192311,2092,2055,2100,2173,1745225167040154749
5193311,2090,2049,2101,2164,1745225167040154749
5194311,2085,2035,2091,2139,1745225167040154749
5195311,2074,2017,2073,2092,1745225167040154749
5196311,2056,1999,2043,2026,1745225167040154749
5197311,2033,1986,2017,1965,1745225167040154749
5198311,2012,1980,1990,1905,1745225167040154749
5199311,1993,1982,1970,1858,1745225167040154749
5200312,1976,1992,1956,1827,1745225167040154749
5201312,1966,2009,1955,1819,1745225167040154749
5202312,1963,2035,1969,1843,1745225167040154749
5203312,1969,2075,1995,1896,1745225167040154749
5204312,1979,2115,2028,1965,1745225167040154749
5205312,1994,2144,2060,2034,1745225167040154749
5206312,2013,2155,2083,2092,1745225167040154749
5207312,2032,2159,2099,2138,1745225167040154749
5208312,2050,2156,2109,2170,1745225167040154749
5209312,2063,2153,2115,2194,1745225167040154749
5210312,2073,2148,2116,2210,1745225167040154749
5211312,2082,2140,2114,2222,1745225167040154749
5212313,2090,2122,2108,2230,1745225167040154749
5213313,2096,2106,2100,2228,1745225167040154749
5214313,2094,2086,2088,2205,1745225167040154749
5215313,2088,2067,2067,2158,1745225167040154749
5216313,2073,2049,2035,2093,1745225167040154749
5217313,2053,2028,2002,2019,1745225167040154749
5218313,2031,2005,1967,1950,1745225167040154749
5219313,2016,1981,1938,1892,1745225167040154749
5220313,2008,1963,1915,1852,1745225167040154749
5221313,2006,1957,1906,1843,1745225167040154749
5222313,2013,1963,1914,1866,1745225167040154749
5223313,2022,1982,1937,1917,1745225167040154749
5224314,2033,2006,1970,1982,1745225167040154749
5225314,2049,2031,2000,2042,1745225167040154749
5226314,2070,2054,2026,2092,1745225167040154749
5227314,2074,2074,2048,2128,1745225167040154749
5228314,2081,2096,2061,2152,1745225167040154749
5229314,2084,2113,2069,2165,1745225167040154749
5230314,2086,2117,2073,2174,1745225167040154749
5231314,2090,2112,2074,2180,1745225167040154749
5232314,2092,2102,2075,2182,1745225167040154749
5233314,2091,2094,2070,2176,1745225167040154749
5234314,2085,2084,2058,2147,1745225167040154749
5235314,2070,2070,2032,2098,1745225167040154749
5236315,2050,2052,1997,2030,1745225167040154749
5237315,2024,2032,1968,1961,1745225167040154749
5238315,2003,2014,1929,1898,1745225167107050231
5239315,1989,2002,1909,1849,1745225167107050231
5240315,1981,1996,1894,1824,1745225167107050231
5241315,1980,1997,1890,1827,1745225167107050231
5242315,1988,2003,1901,1865,1745225167107050231
5243315,2004,2010,1928,1929,1745225167107050231
5244315,2021,2022,1962,2001,1745225167107050231
5245315,2039,2037,1994,2073,1745225167107050231
5246315,2058,2052,2023,2128,1745225167107050231
5247315,2073,2074,2041,2162,1745225167107050231
5248316,2086,2063,2058,2192,1745225167107050231
5249317,2098,2064,2065,2201,1745225167107050231
5250316,2101,2073,2070,2202,1745225167107050231
5251316,2099,2081,2070,2200,1745225167107050231
5252316,2099,2092,2067,2190,1745225167107050231
5253316,2094,2105,2062,2180,1745225167107050231
5254316,2092,2118,2052,2154,1745225167107050231
5255316,2074,2123,2031,2107,1745225167107050231
5256316,2050,2120,2005,2044,1745225167107050231
5257316,2019,2106,1979,1978,1745225167107050231
5258316,1992,2080,1955,1918,1745225167107050231
5259316,1970,2044,1935,1870,1745225167107050231
5260317,1959,2013,1921,1842,1745225167107050231
5261317,1958,1993,1914,1840,1745225167107050231
5262317,1969,1980,1922,1867,1745225167107050231
5263317,1994,1976,1942,1920,1745225167107050231
5264317,2024,1980,1969,1984,1745225167107050231
5265317,2057,1993,1997,2044,1745225167107050231
5266317,2080,2006,2021,2096,1745225167107050231
5267317,2098,2016,2036,2142,1745225167107050231
5268317,2114,2019,2044,2158,1745225167107050231
5269317,2125,2017,2051,2177,1745225167107050231
5270317,2133,2019,2056,2189,1745225167107050231
5271317,2138,2021,2060,2196,1745225167107050231
5272318,2141,2026,2065,2196,1745225167107050231
5273318,2141,2030,2068,2185,1745225167107050231
5274318,2137,2030,2060,2148,1745225167107050231
5275318,2125,2020,2038,2091,1745225167107050231
5276318,2109,2005,2008,2017,1745225167107050231
5277318,2090,1988,1973,1945,1745225167107050231
5278318,2067,1975,1939,1883,1745225167107050231
5279318,2041,1966,1914,1839,1745225167107050231
5280318,2024,1962,1901,1820,1745225167107050231
5281318,2012,1965,1904,1834,1745225167107050231
5282318,2011,1980,1925,1882,1745225167107050231
5283318,2017,2006,1958,1954,1745225167107050231
5284319,2018,2037,1998,2033,1745225167107050231
5285319,2019,2076,2034,2106,1745225167107050231
5286319,2019,2117,2064,2160,1745225167107050231
5287319,2028,2141,2081,2195,1745225167107050231
5288319,2048,2142,2088,2215,1745225167107050231
5289319,2068,2129,2087,2221,1745225167107050231
5290319,2088,2108,2078,2219,1745225167107050231
5291319,2106,2083,2068,2208,1745225167107050231
5292319,2121,2060,2061,2194,1745225167107050231
5293319,2130,2042,2054,2172,1745225167107050231
5294319,2124,2028,2042,2133,1745225167107050231
5295319,2113,2014,2022,2070,1745225167107050231
5296320,2092,1997,1994,1994,1745225167161964365
5297320,2067,1977,1961,1919,1745225167161964365
5298320,2040,1962,1930,1854,1745225167161964365
5299320,2016,1954,1905,1806,1745225167161964365
5300320,1996,1955,1889,1784,1745225167161964365
5301320,1984,1963,1889,1792,1745225167161964365
5302320,1981,1982,1905,1834,1745225167161964365
5303320,1989,2010,1937,1901,1745225167161964365
5304320,2005,2041,1976,1979,1745225167161964365
5305320,2021,2070,2015,2056,1745225167161964365
5306320,2038,2090,2050,2121,1745225167161964365
5307320,2060,2102,2076,2171,1745225167161964365
5308321,2077,2109,2092,2207,1745225167161964365
5309321,2089,2116,2106,2230,1745225167161964365
5310321,2092,2132,2114,2242,1745225167161964365
5311321,2089,2145,2116,2240,1745225167161964365
5312321,2089,2149,2112,2228,1745225167161964365
5313321,2091,2153,2102,2208,1745225167161964365
5314321,2091,2135,2084,2172,1745225167161964365
5315321,2085,2118,2057,2120,1745225167161964365
5316321,2080,2096,2023,2058,1745225167161964365
5317321,2082,2065,1998,1994,1745225167161964365
5318321,2090,2026,1985,1936,1745225167161964365
5319321,2106,1989,1981,1890,1745225167161964365
5320322,2127,1962,1985,1859,1745225167161964365
5321322,2156,1952,1996,1866,1745225167161964365
5322322,2169,1955,2006,1896,1745225167161964365
5323322,2164,1971,2017,1950,1745225167161964365
5324322,2139,2000,2024,2012,1745225167161964365
5325322,2106,2030,2028,2070,1745225167161964365
5326322,2078,2058,2030,2115,1745225167161964365
5327322,2057,2080,2034,2149,1745225167161964365
5328322,2043,2091,2036,2171,1745225167161964365
5329322,2037,2101,2040,2188,1745225167161964365
5330322,2037,2110,2044,2197,1745225167161964365
5331322,2043,2117,2053,2200,1745225167161964365
5332323,2058,2126,2062,2196,1745225167161964365
5333323,2069,2132,2068,2195,1745225167161964365
5334323,2074,2130,2067,2146,1745225167161964365
5335323,2075,2113,2057,2096,1745225167161964365
5336323,2070,2081,2036,2034,1745225167161964365
5337323,2062,2041,2013,1976,1745225167161964365
5338323,2056,2005,1988,1926,1745225167161964365
5339323,2049,1977,1968,1890,1745225167161964365
5340323,2044,1963,1957,1873,1745225167161964365
5341323,2049,1964,1962,1882,1745225167161964365
5342323,2058,1977,1980,1915,1745225167161964365
5343323,2074,1995,2009,1966,1745225167161964365
5344324,2092,2016,2042,2020,1745225167161964365
5345324,2113,2041,2074,2068,1745225167161964365
5346324,2132,2070,2092,2101,1745225167161964365
5347324,2148,2094,2094,2122,1745225167161964365
5348324,2156,2113,2083,2136,1745225167161964365
5349324,2153,2123,2058,2146,1745225167161964365
5350324,2129,2132,2025,2156,1745225167161964365
5351324,2095,2138,1995,2164,1745225167161964365
5352324,2059,2144,1976,2169,1745225167161964365
5353324,2025,2147,1966,2163,1745225167161964365
5354324,1999,2140,1957,2134,1745225167217873594
5355324,1990,2120,1944,2083,1745225167217873594
5356325,1986,2090,1920,2012,1745225167217873594
5357325,1979,2059,1890,1942,1745225167217873594
5358325,1969,2030,1853,1883,1745225167217873594
5359325,1952,2014,1845,1840,1745225167217873594
5360325,1938,2010,1844,1819,1745225167217873594
5361325,1938,2017,1868,1825,1745225167217873594
5362325,1960,2030,1912,1858,1745225167217873594
5363325,1999,2050,1968,1912,1745225167217873594
5364325,2043,2070,2024,1974,1745225167217873594
5365325,2092,2088,2068,2036,1745225167217873594
5366326,2133,2101,2092,2093,1745225167217873594
5367325,2162,2114,2102,2144,1745225167217873594
5368326,2176,2122,2101,2176,1745225167217873594
5369326,2182,2126,2104,2195,1745225167217873594
5370326,2190,2126,2123,2202,1745225167217873594
5371326,2204,2123,2164,2197,1745225167217873594
5372326,2224,2121,2216,2185,1745225167217873594
5373326,2249,2112,2282,2161,1745225167217873594
5374326,2274,2089,2302,2121,1745225167217873594
5375326,2299,2062,2302,2067,1745225167217873594
5376326,2304,2030,2254,1996,1745225167217873594
5377326,2275,2008,2171,1933,1745225167217873594
5378326,2198,1997,2067,1882,1745225167217873594
5379326,2091,1996,1962,1846,1745225167217873594
5380327,1979,2001,1882,1826,1745225167217873594
5381327,1892,2014,1840,1830,1745225167217873594
5382327,1840,2034,1837,1868,1745225167217873594
5383327,1820,2062,1869,1929,1745225167217873594
5384327,1829,2088,1921,1998,1745225167217873594
5385327,1861,2105,1992,2059,1745225167217873594
5386327,1908,2112,2033,2104,1745225167217873594
5387327,1968,2108,2079,2140,1745225167217873594
5388327,2029,2100,2110,2177,1745225167217873594
5389327,2090,2089,2132,2212,1745225167217873594
5390327,2145,2073,2145,2242,1745225167217873594
5391327,2192,2061,2156,2269,1745225167217873594
5392328,2224,2049,2164,2289,1745225167217873594
5393328,2240,2037,2163,2287,1745225167217873594
5394328,2244,2024,2149,2251,1745225167217873594
5395328,2248,1998,2124,2187,1745225167217873594
5396328,2245,1966,2089,2109,1745225167217873594
5397328,2229,1937,2048,2034,1745225167217873594
5398328,2205,1913,2006,1978,1745225167217873594
5399328,2180,1902,1972,1934,1745225167217873594
5400328,2155,1899,1947,1899,1745225167217873594
5401328,2128,1918,1934,1891,1745225167217873594
5402328,2094,1953,1932,1915,1745225167217873594
5403328,2062,1997,1941,1963,1745225167217873594
5404329,2025,2053,1956,2020,1745225167217873594
5405329,1986,2107,1973,2081,1745225167217873594
5406329,1945,2154,1989,2132,1745225167217873594
5407330,1908,2191,1994,2174,1745225167217873594
5408329,1869,2217,1987,2198,1745225167217873594
5409331,1838,2232,1971,2205,1745225167217873594
5410329,1807,2244,1950,2205,1745225167217873594
5411329,1780,2248,1937,2198,1745225167217873594
5412329,1764,2243,1932,2186,1745225167276598787
5413329,1760,2228,1932,2163,1745225167276598787
5414329,1759,2198,1927,2117,1745225167276598787
5415329,1762,2161,1915,2062,1745225167276598787
5416330,1764,2121,1894,2002,1745225167276598787
5417330,1772,2076,1870,1947,1745225167276598787
5418330,1774,2034,1850,1900,1745225167276598787
5419330,1781,2000,1840,1866,1745225167276598787
5420330,1802,1973,1850,1853,1745225167276598787
5421330,1838,1958,1876,1869,1745225167276598787
5422333,1884,1955,1920,1915,1745225167276598787
5423330,1942,1964,1974,1984,1745225167276598787
5424330,1995,1979,2030,2066,1745225167276598787
5425331,2042,1996,2074,2147,1745225167276598787
5426330,2076,2010,2097,2221,1745225167276598787
5427331,2096,2024,2106,2277,1745225167276598787
5428331,2109,2038,2112,2313,1745225167276598787
5429331,2116,2068,2114,2331,1745225167276598787
5430331,2121,2070,2113,2333,1745225167276598787
5431331,2126,2084,2113,2317,1745225167276598787
5432331,2131,2099,2109,2283,1745225167276598787
5433331,2128,2112,2097,2226,1745225167276598787
5434331,2114,2115,2064,2149,1745225167276598787
5435331,2083,2107,2013,2061,1745225167276598787
5436331,2036,2089,1957,1965,1745225167276598787
5437331,1988,2066,1904,1880,1745225167276598787
5438331,1947,2042,1872,1819,1745225167276598787
5439331,1922,2022,1866,1778,1745225167276598787
5440332,1928,2004,1889,1757,1745225167276598787
5441332,1963,1989,1937,1761,1745225167276598787
5442332,2022,1992,2001,1802,1745225167276598787
5443332,2091,2001,2067,1878,1745225167276598787
5444332,2153,2013,2115,1974,1745225167276598787
5445332,2195,2020,2138,2074,1745225167276598787
5446332,2210,2021,2136,2169,1745225167276598787
5447332,2206,2019,2124,2250,1745225167276598787
5448332,2198,2018,2115,2300,1745225167276598787
5449332,2187,2020,2101,2320,1745225167276598787
5450332,2170,2032,2089,2314,1745225167276598787
5451332,2139,2048,2073,2298,1745225167276598787
5452333,2095,2077,2054,2281,1745225167276598787
5453333,2041,2099,2028,2250,1745225167276598787
5454333,1994,2110,2003,2183,1745225167276598787
5455333,1959,2107,1979,2089,1745225167276598787
5456333,1941,2091,1961,1985,1745225167276598787
5457333,1940,2069,1949,1895,1745225167276598787
5458333,1941,2053,1940,1824,1745225167276598787
5459333,1936,2048,1934,1773,1745225167276598787
5460333,1922,2051,1930,1749,1745225167276598787
5461333,1904,2062,1934,1772,1745225167276598787
5462333,1889,2075,1953,1845,1745225167276598787
5463333,1889,2089,1992,1953,1745225167276598787
5464334,1914,2101,2041,2064,1745225167276598787
5465334,1957,2110,2091,2155,1745225167276598787
5466334,2010,2116,2135,2225,1745225167276598787
5467334,2070,2120,2174,2274,1745225167276598787
5468334,2130,2121,2204,2290,1745225167276598787
5469334,2176,2125,2222,2275,1745225167276598787
5470334,2208,2124,2228,2238,1745225167330375066
5471334,2228,2120,2224,2193,1745225167330375066
5472334,2238,2115,2205,2146,1745225167330375066
5473334,2227,2107,2165,2098,1745225167330375066
5474334,2192,2094,2100,2052,1745225167330375066
5475334,2135,2072,2026,2010,1745225167330375066
5476335,2077,2036,1963,1968,1745225167330375066
5477335,2029,2001,1917,1926,1745225167330375066
5478335,1996,1966,1892,1896,1745225167330375066
5479335,1979,1936,1884,1889,1745225167330375066
5480335,1981,1905,1896,1916,1745225167330375066
5481335,2005,1881,1929,1984,1745225167330375066
5482335,2043,1869,1978,2075,1745225167330375066
5483336,2089,1875,2029,2170,1745225167330375066
5484335,2126,1897,2079,2249,1745225167330375066
5485337,2148,1929,2110,2296,1745225167330375066
5486335,2142,1972,2130,2301,1745225167330375066
5487335,2122,2019,2152,2266,1745225167330375066
5488336,2104,2067,2180,2193,1745225167330375066
5489336,2099,2107,2195,2093,1745225167330375066
5490336,2114,2139,2220,1982,1745225167330375066
5491336,2137,2163,2224,1892,1745225167330375066
5492336,2148,2187,2212,1845,1745225167330375066
5493336,2138,2197,2173,1830,1745225167330375066
5494336,2096,2198,2110,1822,1745225167330375066
5495336,2033,2190,2032,1818,1745225167330375066
5496336,1967,2170,1963,1790,1745225167330375066
5497336,1905,2152,1915,1758,1745225167330375066
5498336,1854,2136,1886,1727,1745225167330375066
5499336,1812,2128,1874,1707,1745225167330375066
5500337,1782,2131,1888,1710,1745225167330375066
5501337,1768,2138,1926,1748,1745225167330375066
5502337,1772,2145,1981,1819,1745225167330375066
5503337,1796,2154,2042,1905,1745225167330375066
5504337,1836,2161,2100,1990,1745225167330375066
5505337,1884,2159,2144,2065,1745225167330375066
5506337,1934,2152,2174,2129,1745225167330375066
5507337,1984,2141,2193,2182,1745225167330375066
5508337,2031,2121,2203,2222,1745225167330375066
5509337,2077,2100,2211,2252,1745225167330375066
5510337,2118,2078,2214,2272,1745225167330375066
5511337,2153,2058,2216,2286,1745225167330375066
5512338,2176,2035,2214,2291,1745225167330375066
5513338,2188,2008,2201,2283,1745225167330375066
5514338,2195,1963,2164,2266,1745225167330375066
5515338,2205,1897,2115,2253,1745225167330375066
5516338,2219,1820,2066,2253,1745225167330375066
5517338,2242,1747,2028,2265,1745225167330375066
5518338,2272,1680,2011,2280,1745225167330375066
5519338,2308,1636,2012,2282,1745225167330375066
5520338,2339,1623,2035,2261,1745225167330375066
5521338,2356,1658,2076,2225,1745225167330375066
5522338,2352,1726,2116,2180,1745225167330375066
5523338,2321,1817,2156,2140,1745225167330375066
5524339,2270,1909,2178,2114,1745225167330375066
5525339,2193,1989,2177,2102,1745225167330375066
5526339,2115,2026,2160,2108,1745225167330375066
5527339,2058,2041,2142,2122,1745225167330375066
5528339,2026,2041,2133,2132,1745225167406317445
5529339,2023,2044,2132,2124,1745225167406317445
5530339,2033,2064,2139,2090,1745225167406317445
5531339,2038,2096,2147,2057,1745225167406317445
5532339,2029,2137,2144,2049,1745225167406317445
5533339,2002,2170,2117,2051,1745225167406317445
5534339,1965,2186,2070,2025,1745225167406317445
5535339,1932,2173,2018,1970,1745225167406317445
5536340,1913,2137,1978,1907,1745225167406317445
5537340,1915,2087,1956,1856,1745225167406317445
5538340,1931,2032,1952,1823,1745225167406317445
5539341,1946,1998,1957,1796,1745225167406317445
5540341,1961,1989,1974,1780,1745225167406317445
5541340,1977,2005,2001,1779,1745225167406317445
5542340,1997,2035,2034,1840,1745225167406317445
5543341,2016,2059,2069,1956,1745225167406317445
5544341,2034,2068,2099,2090,1745225167406317445
5545340,2053,2059,2123,2213,1745225167406317445
5546340,2072,2033,2141,2312,1745225167406317445
5547340,2094,2008,2150,2377,1745225167406317445
5548341,2129,1947,2155,2420,1745225167406317445
5549341,2168,1916,2164,2437,1745225167406317445
5550341,2200,1918,2180,2416,1745225167406317445
5551341,2213,1960,2193,2353,1745225167406317445
5552341,2208,2017,2196,2265,1745225167406317445
5553341,2184,2072,2176,2163,1745225167406317445
5554341,2150,2101,2132,2062,1745225167406317445
5555341,2112,2112,2080,1965,1745225167406317445
5556341,2073,2104,2030,1880,1745225167406317445
5557341,2032,2094,1990,1804,1745225167406317445
5558341,1990,2084,1963,1736,1745225167406317445
5559341,1952,2073,1949,1679,1745225167406317445
5560342,1925,2059,1953,1652,1745225167406317445
5561342,1910,2064,1980,1658,1745225167406317445
5562342,1900,2103,2023,1685,1745225167406317445
5563342,1894,2165,2069,1715,1745225167406317445
5564342,1894,2229,2104,1736,1745225167406317445
5565342,1896,2281,2125,1750,1745225167406317445
5566342,1890,2317,2136,1766,1745225167406317445
5567342,1882,2342,2140,1784,1745225167406317445
5568342,1875,2352,2146,1804,1745225167406317445
5569342,1877,2349,2152,1830,1745225167406317445
5570342,1888,2331,2156,1871,1745225167406317445
5571342,1906,2304,2168,1929,1745225167406317445
5572343,1933,2267,2178,1995,1745225167406317445
5573343,1969,2219,2186,2052,1745225167406317445
5574343,2010,2163,2169,2076,1745225167406317445
5575343,2049,2107,2155,2072,1745225167406317445
5576343,2080,2052,2126,2040,1745225167406317445
5577343,2097,2006,2096,1992,1745225167406317445
5578343,2094,1976,2073,1934,1745225167406317445
5579343,2070,1965,2059,1881,1745225167406317445
5580343,2028,1973,2058,1850,1745225167406317445
5581343,1984,2003,2073,1850,1745225167406317445
5582343,1939,2030,2101,1884,1745225167406317445
5583343,1907,2065,2137,1949,1745225167406317445
5584344,1900,2080,2167,2025,1745225167406317445
5585344,1913,2076,2190,2098,1745225167406317445
5586344,1942,2056,2210,2165,1745225167452072913
5587344,1979,2024,2229,2230,1745225167452072913
5588344,2018,1991,2250,2299,1745225167452072913
5589344,2058,1966,2264,2364,1745225167452072913
5590344,2093,1946,2272,2414,1745225167452072913
5591344,2129,1928,2271,2440,1745225167452072913
5592344,2160,1909,2256,2432,1745225167452072913
5593344,2185,1888,2224,2392,1745225167452072913
5594344,2202,1866,2173,2333,1745225167452072913
5595344,2200,1844,2115,2264,1745225167452072913
5596345,2173,1838,2057,2181,1745225167452072913
5597345,2129,1851,2008,2086,1745225167452072913
5598345,2079,1873,1974,1995,1745225167452072913
5599345,2038,1889,1955,1946,1745225167452072913
5600345,2017,1896,1958,1957,1745225167452072913
5601345,2010,1905,1982,2005,1745225167452072913
5602345,2009,1931,2026,2066,1745225167452072913
5603346,2010,1957,2074,2126,1745225167452072913
5604345,2020,1979,2113,2178,1745225167452072913
5605345,2038,2010,2138,2205,1745225167452072913
5606345,2053,2045,2150,2192,1745225167452072913
5607346,2049,2093,2154,2137,1745225167452072913
5608346,2032,2152,2155,2054,1745225167452072913
5609346,2009,2214,2154,1963,1745225167452072913
5610346,1978,2272,2152,1888,1745225167452072913
5611346,1944,2316,2146,1841,1745225167452072913
5612346,1917,2339,2132,1827,1745225167452072913
5613346,1907,2332,2108,1839,1745225167452072913
5614346,1910,2297,2074,1861,1745225167452072913
5615346,1924,2236,2041,1883,1745225167452072913
5616346,1947,2153,1986,1915,1745225167452072913
5617346,1979,2059,1949,1953,1745225167452072913
5618346,2022,1974,1925,1986,1745225167452072913
5619346,2032,1928,1923,1992,1745225167452072913
5620347,2036,1953,1940,1963,1745225167452072913
5621347,2023,2022,1971,1932,1745225167452072913
5622347,2013,2099,2006,1932,1745225167452072913
5623347,2021,2151,2030,1957,1745225167452072913
5624347,2044,2184,2063,1995,1745225167452072913
5625347,2074,2200,2080,2033,1745225167452072913
5626347,2102,2208,2091,2077,1745225167452072913
5627347,2125,2218,2096,2115,1745225167452072913
5628347,2129,2246,2095,2128,1745225167452072913
5629347,2107,2303,2089,2100,1745225167452072913
5630347,2066,2366,2078,2048,1745225167452072913
5631347,2021,2411,2066,1996,1745225167452072913
5632348,1990,2428,2048,1957,1745225167452072913
5633348,1977,2411,2020,1920,1745225167452072913
5634348,1980,2362,1984,1879,1745225167452072913
5635348,1990,2292,1942,1841,1745225167452072913
5636348,1994,2218,1899,1814,1745225167452072913
5637348,1988,2152,1860,1803,1745225167452072913
5638348,1977,2093,1832,1812,1745225167452072913
5639348,1973,2048,1820,1841,1745225167452072913
5640348,1970,2015,1830,1890,1745225167452072913
5641348,1964,2004,1868,1950,1745225167452072913
5642348,1958,2017,1924,2008,1745225167452072913
5643348,1958,2052,1977,2040,1745225167452072913
5644349,1965,2100,2020,2038,1745225167534307058
5645349,1964,2158,2050,2009,1745225167534307058
5646349,1956,2216,2061,1967,1745225167534307058
5647349,1945,2258,2068,1938,1745225167534307058
5648349,1939,2274,2073,1938,1745225167534307058
5649349,1941,2272,2081,1960,1745225167534307058
5650349,1949,2256,2089,1998,1745225167534307058
5651349,1966,2233,2097,2041,1745225167534307058
5652349,1988,2203,2098,2074,1745225167534307058
5653349,2013,2168,2085,2077,1745225167534307058
5654349,2035,2124,2056,2049,1745225167534307058
5655349,2054,2069,2016,2006,1745225167534307058
5656350,2067,1999,1977,1961,1745225167534307058
5657350,2081,1928,1946,1933,1745225167534307058
5658350,2093,1858,1925,1925,1745225167534307058
5659350,2107,1802,1921,1938,1745225167534307058
5660350,2117,1769,1936,1971,1745225167534307058
5661351,2118,1766,1969,2018,1745225167534307058
5662350,2116,1789,2015,2091,1745225167534307058
5663351,2117,1807,2067,2205,1745225167534307058
5664350,2130,1799,2107,2320,1745225167534307058
5665350,2160,1764,2136,2454,1745225167534307058
5666350,2209,1714,2159,2572,1745225167534307058
5667350,2262,1666,2184,2675,1745225167534307058
5668351,2305,1633,2209,2726,1745225167534307058
5669351,2324,1639,2230,2688,1745225167534307058
5670351,2313,1685,2232,2559,1745225167534307058
5671351,2261,1755,2209,2377,1745225167534307058
5672351,2192,1825,2162,2179,1745225167534307058
5673351,2120,1882,2100,1992,1745225167534307058
5674351,2053,1926,2029,1825,1745225167534307058
5675351,1990,1959,1968,1688,1745225167534307058
5676351,1939,1972,1917,1589,1745225167534307058
5677351,1897,1970,1880,1535,1745225167534307058
5678351,1866,1954,1857,1528,1745225167534307058
5679351,1849,1938,1848,1536,1745225167534307058
5680352,1848,1929,1856,1585,1745225167534307058
5681352,1861,1928,1884,1661,1745225167534307058
5682352,1883,1941,1932,1750,1745225167534307058
5683352,1911,1971,1984,1832,1745225167534307058
5684352,1932,2006,2026,1892,1745225167534307058
5685352,1954,2032,2057,1941,1745225167534307058
5686352,1976,2042,2074,1986,1745225167534307058
5687352,2001,2037,2083,2037,1745225167534307058
5688352,2028,2016,2090,2108,1745225167534307058
5689352,2061,1982,2094,2189,1745225167534307058
5690352,2092,1948,2098,2269,1745225167534307058
5691352,2129,1923,2102,2333,1745225167534307058
5692353,2148,1910,2100,2371,1745225167534307058
5693353,2165,1917,2092,2370,1745225167534307058
5694353,2169,1944,2077,2330,1745225167534307058
5695353,2160,1973,2052,2269,1745225167534307058
5696353,2147,1993,2019,2206,1745225167534307058
5697353,2135,2000,1987,2159,1745225167534307058
5698353,2129,1998,1965,2137,1745225167534307058
5699353,2123,1998,1962,2132,1745225167534307058
5700353,2108,2016,1979,2129,1745225167534307058
5701353,2073,2065,2016,2107,1745225167534307058
5702353,2018,2126,2060,2073,1745225167578174053
5703353,1965,2186,2094,2032,1745225167578174053
5704354,1931,2238,2118,1997,1745225167578174053
5705354,1916,2285,2133,1969,1745225167578174053
5706354,1921,2327,2142,1950,1745225167578174053
5707354,1933,2351,2145,1949,1745225167578174053
5708354,1955,2364,2145,1968,1745225167578174053
5709354,1980,2363,2145,2005,1745225167578174053
5710354,2006,2350,2148,2058,1745225167578174053
5711354,2035,2328,2149,2110,1745225167578174053
5712354,2067,2301,2144,2154,1745225167578174053
5713354,2094,2268,2128,2176,1745225167578174053
5714354,2118,2228,2097,2172,1745225167578174053
5715354,2137,2186,2058,2149,1745225167578174053
5716355,2146,2145,2017,2118,1745225167578174053
5717355,2148,2118,1986,2081,1745225167578174053
5718355,2141,2112,1965,2041,1745225167578174053
5719355,2125,2123,1962,2007,1745225167578174053
5720355,2101,2162,1979,1994,1745225167578174053
5721355,2071,2230,2017,1997,1745225167578174053
5722355,2037,2305,2070,2019,1745225167578174053
5723355,2017,2369,2123,2061,1745225167578174053
5724355,2013,2408,2166,2112,1745225167578174053
5725356,2024,2425,2197,2160,1745225167578174053
5726356,2042,2427,2217,2200,1745225167578174053
5727355,2063,2416,2221,2225,1745225167578174053
5728356,2075,2397,2217,2235,1745225167578174053
5729356,2083,2370,2210,2250,1745225167578174053
5730356,2093,2338,2202,2261,1745225167578174053
5731356,2099,2305,2194,2273,1745225167578174053
5732356,2105,2273,2181,2275,1745225167578174053
5733356,2112,2236,2156,2258,1745225167578174053
5734356,2117,2193,2120,2216,1745225167578174053
5735356,2118,2146,2074,2153,1745225167578174053
5736356,2120,2099,2026,2082,1745225167578174053
5737356,2093,2072,1989,2017,1745225167578174053
5738359,2081,2029,1965,1974,1745225167578174053
5739356,2054,2010,1958,1950,1745225167578174053
5740359,2028,2009,1972,1955,1745225167578174053
5741357,2009,2030,2009,1988,1745225167578174053
5742357,1996,2066,2059,2041,1745225167578174053
5743357,1994,2098,2105,2103,1745225167578174053
5744357,2002,2118,2141,2160,1745225167578174053
5745357,2017,2126,2163,2208,1745225167578174053
5746357,2040,2125,2176,2245,1745225167578174053
5747357,2060,2109,2182,2285,1745225167578174053
5748357,2078,2085,2185,2328,1745225167578174053
5749357,2094,2051,2185,2369,1745225167578174053
5750357,2110,2010,2181,2402,1745225167578174053
5751357,2123,1973,2176,2422,1745225167578174053
5752358,2138,1945,2164,2412,1745225167578174053
5753358,2148,1932,2141,2349,1745225167578174053
5754358,2142,1936,2115,2226,1745225167578174053
5755358,2120,1946,2048,2068,1745225167578174053
5756358,2083,1956,1992,1916,1745225167578174053
5757358,2038,1957,1946,1800,1745225167578174053
5758358,2000,1953,1914,1721,1745225167578174053
5759358,1968,1949,1900,1672,1745225167578174053
5760358,1944,1955,1908,1682,1745225167641702274
5761358,1928,1970,1941,1726,1745225167641702274
5762358,1924,1993,1989,1804,1745225167641702274
5763358,1934,2021,2041,1897,1745225167641702274
5764359,1957,2035,2088,1995,1745225167641702274
5765359,1990,2030,2121,2091,1745225167641702274
5766359,2029,2008,2145,2180,1745225167641702274
5767359,2072,1977,2157,2254,1745225167641702274
5768359,2109,1949,2161,2308,1745225167641702274
5769359,2138,1933,2162,2338,1745225167641702274
5770359,2154,1936,2164,2345,1745225167641702274
5771359,2157,1952,2163,2335,1745225167641702274
5772359,2149,1965,2153,2305,1745225167641702274
5773359,2138,1960,2126,2259,1745225167641702274
5774359,2125,1940,2083,2193,1745225167641702274
5775359,2108,1917,2030,2106,1745225167641702274
5776360,2085,1907,1982,2010,1745225167641702274
5777360,2056,1915,1946,1910,1745225167641702274
5778360,2018,1945,1925,1814,1745225167641702274
5779360,1978,1986,1921,1732,1745225167641702274
5780360,1936,2028,1933,1681,1745225167641702274
5781360,1905,2066,1961,1674,1745225167641702274
5782360,1888,2099,2003,1716,1745225167641702274
5783360,1887,2130,2049,1780,1745225167641702274
5784361,1900,2154,2088,1860,1745225167641702274
5785362,1922,2167,2116,1940,1745225167641702274
5786360,1950,2160,2134,2016,1745225167641702274
5787360,1986,2134,2144,2088,1745225167641702274
5788361,2025,2106,2147,2147,1745225167641702274
5789361,2069,2067,2148,2202,1745225167641702274
5790361,2113,2031,2149,2240,1745225167641702274
5791361,2125,2011,2148,2255,1745225167641702274
5792361,2162,2008,2138,2232,1745225167641702274
5793361,2170,2006,2110,2171,1745225167641702274
5794361,2164,2000,2070,2083,1745225167641702274
5795361,2146,1986,2020,1976,1745225167641702274
5796361,2113,1969,1976,1870,1745225167641702274
5797361,2069,1953,1941,1782,1745225167641702274
5798361,2022,1934,1918,1719,1745225167641702274
5799361,1985,1910,1909,1688,1745225167641702274
5800362,1954,1892,1922,1696,1745225167641702274
5801362,1931,1886,1958,1747,1745225167641702274
5802362,1918,1893,2011,1827,1745225167641702274
5803362,1918,1914,2067,1907,1745225167641702274
5804362,1925,1946,2113,1968,1745225167641702274
5805362,1937,1986,2144,2005,1745225167641702274
5806362,1953,2020,2162,2030,1745225167641702274
5807362,1972,2040,2170,2044,1745225167641702274
5808362,1993,2050,2172,2056,1745225167641702274
5809362,2014,2049,2168,2062,1745225167641702274
5810362,2030,2044,2163,2073,1745225167641702274
5811362,2044,2037,2157,2084,1745225167641702274
5812363,2056,2034,2142,2083,1745225167641702274
5813363,2067,2023,2115,2061,1745225167641702274
5814363,2075,2009,2076,2015,1745225167641702274
5815363,2075,1992,2029,1955,1745225167641702274
5816363,2067,1973,1989,1898,1745225167641702274
5817363,2053,1958,1957,1852,1745225167641702274
5818363,2034,1946,1936,1824,1745225167701624123
5819363,2016,1923,1928,1817,1745225167701624123
5820363,1998,1923,1939,1837,1745225167701624123
5821363,1986,1939,1971,1888,1745225167701624123
5822363,1980,1966,2018,1956,1745225167701624123
5823363,1984,1984,2065,2024,1745225167701624123
5824364,1995,2014,2101,2083,1745225167701624123
5825364,2012,2027,2128,2128,1745225167701624123
5826364,2034,2033,2140,2163,1745225167701624123
5827364,2058,2037,2148,2186,1745225167701624123
5828364,2074,2052,2156,2194,1745225167701624123
5829364,2083,2067,2166,2202,1745225167701624123
5830364,2088,2083,2178,2196,1745225167701624123
5831364,2086,2101,2186,2180,1745225167701624123
5832364,2081,2117,2185,2149,1745225167701624123
5833364,2072,2126,2164,2092,1745225167701624123
5834364,2058,2126,2125,2004,1745225167701624123
5835364,2037,2115,2076,1910,1745225167701624123
5836365,2016,2091,2026,1829,1745225167701624123
5837365,1997,2061,1987,1774,1745225167701624123
5838365,1985,2017,1960,1754,1745225167701624123
5839366,1992,1981,1952,1774,1745225167701624123
5840365,1985,1933,1965,1829,1745225167701624123
5841365,1997,1912,2002,1915,1745225167701624123
5842365,2017,1915,2057,2010,1745225167701624123
5843365,2037,1938,2109,2091,1745225167701624123
5844365,2059,1968,2149,2140,1745225167701624123
5845365,2072,2000,2171,2154,1745225167701624123
5846365,2076,2026,2179,2149,1745225167701624123
5847365,2075,2054,2177,2132,1745225167701624123
5848366,2069,2085,2174,2112,1745225167701624123
5849366,2060,2121,2172,2092,1745225167701624123
5850366,2049,2148,2172,2076,1745225167701624123
5851366,2038,2169,2170,2064,1745225167701624123
5852366,2035,2182,2160,2042,1745225167701624123
5853366,2034,2179,2138,2008,1745225167701624123
5854366,2030,2158,2078,1964,1745225167701624123
5855366,2026,2126,2053,1914,1745225167701624123
5856366,2015,2088,2011,1872,1745225167701624123
5857366,1998,2051,1981,1844,1745225167701624123
5858366,1980,2018,1965,1834,1745225167701624123
5859366,1962,2001,1969,1845,1745225167701624123
5860367,1942,2001,1997,1881,1745225167701624123
5861367,1928,2014,2044,1937,1745225167701624123
5862367,1921,2036,2098,2005,1745225167701624123
5863367,1934,2061,2145,2072,1745225167701624123
5864367,1955,2085,2178,2120,1745225167701624123
5865367,1981,2106,2194,2156,1745225167701624123
5866367,2010,2115,2198,2189,1745225167701624123
5867367,2049,2108,2192,2222,1745225167701624123
5868367,2092,2082,2181,2267,1745225167701624123
5869367,2139,2038,2169,2314,1745225167701624123
5870367,2179,2001,2157,2354,1745225167701624123
5871367,2205,1978,2146,2370,1745225167701624123
5872368,2211,1973,2128,2345,1745225167701624123
5873368,2196,1984,2098,2259,1745225167701624123
5874368,2157,2009,2050,2115,1745225167701624123
5875368,2101,2036,1989,1945,1745225167701624123
5876368,2036,2059,1932,1793,1745225167753514065
5877368,1977,2077,1888,1678,1745225167753514065
5878368,1923,2098,1866,1606,1745225167753514065
5879368,1880,2122,1865,1581,1745225167753514065
5880368,1848,2146,1888,1610,1745225167753514065
5881368,1833,2170,1933,1685,1745225167753514065
5882368,1832,2192,1987,1790,1745225167753514065
5883368,1848,2206,2036,1900,1745225167753514065
5884369,1882,2205,2075,2002,1745225167753514065
5885369,1924,2194,2098,2084,1745225167753514065
5886369,1966,2182,2109,2134,1745225167753514065
5887369,2002,2174,2108,2164,1745225167753514065
5888369,2035,2168,2097,2184,1745225167753514065
5889369,2064,2153,2082,2202,1745225167753514065
5890369,2090,2130,2064,2222,1745225167753514065
5891369,2116,2101,2045,2243,1745225167753514065
5892369,2144,2061,2019,2258,1745225167753514065
5893369,2170,2010,1980,2248,1745225167753514065
5894369,2189,1960,1926,2194,1745225167753514065
5895369,2192,1914,1863,2102,1745225167753514065
5896370,2177,1874,1807,1997,1745225167753514065
5897370,2147,1849,1762,1892,1745225167753514065
5898370,2106,1841,1733,1805,1745225167753514065
5899370,2058,1848,1722,1744,1745225167753514065
5900370,2009,1865,1731,1724,1745225167753514065
5901370,1974,1888,1763,1755,1745225167753514065
5902372,1956,1914,1808,1828,1745225167753514065
5903370,1955,1942,1859,1920,1745225167753514065
5904370,1966,1982,1906,2009,1745225167753514065
5905370,1981,2029,1950,2088,1745225167753514065
5906370,2003,2076,1976,2145,1745225167753514065
5907370,2030,2112,1990,2188,1745225167753514065
5908371,2060,2137,1992,2218,1745225167753514065
5909371,2085,2144,1987,2238,1745225167753514065
5910371,2106,2144,1979,2254,1745225167753514065
5911371,2118,2136,1965,2265,1745225167753514065
5912371,2126,2118,1943,2268,1745225167753514065
5913371,2124,2088,1907,2252,1745225167753514065
5914371,2114,2040,1849,2218,1745225167753514065
5915371,2102,1987,1801,2174,1745225167753514065
5916371,2093,1933,1756,2131,1745225167753514065
5917371,2084,1889,1724,2093,1745225167753514065
5918371,2081,1857,1704,2065,1745225167753514065
5919371,2081,1846,1704,2042,1745225167753514065
5920372,2080,1868,1729,2035,1745225167753514065
5921372,2081,1920,1777,2051,1745225167753514065
5922372,2090,1986,1833,2079,1745225167753514065
5923372,2120,2054,1886,2105,1745225167753514065
5924372,2163,2102,1925,2146,1745225167753514065
5925372,2221,2130,1950,2181,1745225167753514065
5926372,2280,2146,1961,2210,1745225167753514065
5927372,2339,2157,1962,2226,1745225167753514065
5928372,2386,2167,1954,2228,1745225167753514065
5929372,2414,2176,1942,2224,1745225167753514065
5930372,2427,2180,1932,2221,1745225167753514065
5931372,2427,2182,1922,2218,1745225167753514065
5932373,2413,2186,1904,2190,1745225167753514065
5933373,2384,2189,1872,2130,1745225167753514065
5934373,2341,2179,1826,2041,1745225167870727213
5935373,2292,2168,1777,1946,1745225167870727213
5936373,2241,2149,1728,1856,1745225167870727213
5937373,2194,2132,1688,1777,1745225167870727213
5938373,2147,2125,1664,1717,1745225167870727213
5939373,2100,2130,1661,1685,1745225167870727213
5940373,2057,2145,1685,1696,1745225167870727213
5941373,2017,2169,1737,1750,1745225167870727213
5942373,1986,2200,1804,1834,1745225167870727213
5943373,1962,2228,1872,1931,1745225167870727213
5944374,1944,2251,1934,2033,1745225167870727213
5945374,1937,2267,1990,2142,1745225167870727213
5946374,1948,2284,2043,2246,1745225167870727213
5947374,1969,2291,2081,2324,1745225167870727213
5948374,1994,2305,2118,2394,1745225167870727213
5949374,2028,2327,2141,2424,1745225167870727213
5950374,2034,2341,2149,2419,1745225167870727213
5951374,2017,2352,2150,2388,1745225167870727213
5952374,1994,2356,2133,2328,1745225167870727213
5953374,1980,2355,2110,2258,1745225167870727213
5954374,1980,2344,2062,2160,1745225167870727213
5955374,1969,2323,2007,2057,1745225167870727213
5956375,1964,2312,1963,1963,1745225167870727213
5957375,1960,2301,1929,1897,1745225167870727213
5958376,1965,2291,1915,1862,1745225167870727213
5959375,1984,2284,1923,1866,1745225167870727213
5960375,2016,2272,1947,1917,1745225167870727213
5961375,2080,2264,1997,2014,1745225167870727213
5962375,2163,2256,2057,2134,1745225167870727213
5963375,2256,2240,2115,2260,1745225167870727213
5964375,2348,2210,2164,2383,1745225167870727213
5965375,2432,2166,2204,2496,1745225167870727213
5966375,2500,2154,2227,2568,1745225167870727213
5967375,2541,2100,2250,2636,1745225167870727213
5968376,2569,2066,2254,2674,1745225167870727213
5969376,2584,2026,2258,2693,1745225167870727213
5970376,2597,2018,2253,2668,1745225167870727213
5971376,2582,2016,2240,2602,1745225167870727213
5972376,2561,2041,2195,2476,1745225167870727213
5973376,2520,2077,2140,2318,1745225167870727213
5974376,2462,2104,2065,2147,1745225167870727213
5975376,2408,2147,2002,1980,1745225167870727213
5976376,2346,2194,1962,1846,1745225167870727213
5977376,2291,2226,1934,1750,1745225167870727213
5978377,2249,2252,1913,1683,1745225167870727213
5979376,2222,2266,1917,1664,1745225167870727213
5980377,2201,2268,1942,1706,1745225167870727213
5981377,2213,2253,1977,1798,1745225167870727213
5982377,2250,2238,2030,1914,1745225167870727213
5983377,2288,2214,2085,2060,1745225167870727213
5984377,2346,2171,2118,2193,1745225167870727213
5985377,2404,2139,2154,2313,1745225167870727213
5986377,2445,2105,2177,2409,1745225167870727213
5987377,2487,2089,2189,2466,1745225167870727213
5988377,2507,2083,2201,2500,1745225167870727213
5989377,2515,2080,2197,2505,1745225167870727213
5990377,2510,2093,2198,2492,1745225167870727213
5991378,2475,2092,2198,2475,1745225167870727213
5992378,2433,2092,2171,2424,1745225167881068994
5993378,2372,2104,2146,2314,1745225167881068994
5994378,2268,2107,2105,2184,1745225167881068994
5995378,2153,2110,2042,2021,1745225167881068994
5996378,2030,2114,1987,1867,1745225167881068994
5997378,1909,2109,1947,1764,1745225167881068994
5998378,1809,2094,1925,1722,1745225167881068994
5999378,1731,2093,1920,1733,1745225167881068994
6000378,1675,2109,1952,1780,1745225167881068994
6001378,1635,2138,2015,1877,1745225167881068994
6002378,1621,2160,2089,2005,1745225167881068994
6003378,1648,2192,2152,2134,1745225167881068994
6004379,1701,2208,2210,2283,1745225167881068994
6005379,1789,2191,2242,2424,1745225167881068994
6006379,1905,2166,2269,2549,1745225167881068994
6007379,2019,2128,2274,2630,1745225167881068994
6008379,2142,2098,2269,2675,1745225167881068994
6009379,2229,2072,2266,2702,1745225167881068994
6010379,2302,2064,2250,2692,1745225167881068994
6011379,2348,2058,2236,2668,1745225167881068994
6012379,2379,2018,2196,2637,1745225167881068994
6013379,2408,1970,2148,2607,1745225167881068994
6014379,2417,1908,2100,2589,1745225167881068994
6015379,2427,1858,2040,2539,1745225167881068994
6016380,2413,1857,2009,2435,1745225167881068994
6017381,2359,1889,1984,2285,1745225167881068994
6018380,2298,1946,1954,2115,1745225167881068994
6019381,2237,2020,1951,1960,1745225167881068994
6020380,2159,2094,1969,1848,1745225167881068994
6021380,2102,2172,1995,1774,1745225167881068994
6022380,2053,2245,2040,1761,1745225167881068994
6023380,2000,2299,2094,1808,1745225167881068994
6024380,1971,2337,2123,1887,1745225167881068994
6025380,1949,2356,2149,1975,1745225167881068994
6026380,1925,2350,2172,2066,1745225167881068994
6027380,1925,2335,2168,2148,1745225167881068994
6028381,1917,2305,2174,2216,1745225167881068994
6029381,1917,2285,2178,2265,1745225167881068994
6030381,1908,2261,2189,2324,1745225167881068994
6031381,1916,2237,2186,2370,1745225167881068994
6032381,1933,2209,2180,2417,1745225167881068994
6033381,1960,2152,2149,2456,1745225167881068994
6034381,2004,2096,2114,2457,1745225167881068994
6035381,2035,2030,2083,2441,1745225167881068994
6036381,2073,1978,2044,2393,1745225167881068994
6037381,2105,1954,2024,2320,1745225167881068994
6038381,2127,1934,2008,2264,1745225167881068994
6039381,2169,1917,1987,2230,1745225167881068994
6040382,2214,1917,1992,2245,1745225167881068994
6041382,2254,1915,2021,2318,1745225167881068994
6042382,2315,1933,2058,2403,1745225167881068994
6043382,2371,1986,2113,2479,1745225167881068994
6044382,2422,2077,2152,2488,1745225167881068994
6045382,2451,2210,2186,2430,1745225167881068994
6046382,2438,2342,2198,2320,1745225167881068994
6047382,2410,2470,2193,2185,1745225167881068994
6048382,2355,2559,2186,2081,1745225167881068994
6049382,2297,2605,2177,2020,1745225167881068994
6050382,2250,2637,2165,1988,1745225167924665002
6051382,2211,2653,2162,1993,1745225167924665002
6052383,2180,2637,2146,2000,1745225167924665002
6053383,2165,2616,2112,1978,1745225167924665002
6054383,2145,2578,2078,1946,1745225167924665002
6055383,2112,2526,2040,1906,1745225167924665002
6056383,2078,2475,2000,1862,1745225167924665002
6057383,2035,2426,1983,1844,1745225167924665002
6058383,1992,2367,1980,1853,1745225167924665002
6059383,1969,2324,1986,1886,1745225167924665002
6060383,1954,2304,2022,1953,1745225167924665002
6061383,1948,2297,2066,2040,1745225167924665002
6062383,1961,2315,2126,2130,1745225167924665002
6063383,1968,2339,2182,2221,1745225167924665002
6064384,1984,2373,2227,2283,1745225167924665002
6065384,1986,2386,2256,2340,1745225167924665002
6066384,1998,2386,2265,2376,1745225167924665002
6067384,2000,2371,2276,2432,1745225167924665002
6068384,2019,2343,2275,2491,1745225167924665002
6069384,2041,2307,2287,2559,1745225167924665002
6070384,2078,2272,2292,2608,1745225167924665002
6071384,2102,2232,2302,2646,1745225167924665002
6072385,2133,2181,2284,2629,1745225167924665002
6073385,2160,2140,2256,2566,1745225167924665002
6074384,2158,2099,2196,2448,1745225167924665002
6075384,2142,2090,2131,2286,1745225167924665002
6076385,2096,2087,2075,2147,1745225167924665002
6077385,2053,2093,2011,2029,1745225167924665002
6078385,2020,2113,1973,1938,1745225167924665002
6079385,1986,2136,1962,1894,1745225167924665002
6080386,1966,2161,1987,1897,1745225167924665002
6081385,1964,2199,2025,1932,1745225167924665002
6082385,1971,2259,2084,1961,1745225167924665002
6083385,1967,2324,2141,1993,1745225167924665002
6084385,1968,2360,2194,2009,1745225167924665002
6085385,1952,2402,2232,2025,1745225167924665002
6086385,1945,2432,2256,2045,1745225167924665002
6087385,1940,2465,2277,2056,1745225167924665002
6088386,1925,2485,2301,2102,1745225167924665002
6089386,1923,2500,2308,2144,1745225167924665002
6090386,1928,2517,2324,2194,1745225167924665002
6091386,1929,2515,2329,2249,1745225167924665002
6092386,1947,2498,2310,2275,1745225167924665002
6093386,1954,2463,2273,2274,1745225167924665002
6094386,1950,2404,2201,2233,1745225167924665002
6095386,1941,2349,2116,2149,1745225167924665002
6096386,1909,2290,2037,2072,1745225167924665002
6097386,1882,2225,1962,1994,1745225167924665002
6098386,1846,2185,1926,1952,1745225167924665002
6099386,1822,2147,1907,1951,1745225167924665002
6100387,1809,2128,1918,1986,1745225167924665002
6101387,1812,2123,1962,2070,1745225167924665002
6102387,1829,2116,2021,2192,1745225167924665002
6103387,1876,2092,2066,2333,1745225167924665002
6104387,1942,2044,2139,2509,1745225167924665002
6105387,2019,1971,2181,2660,1745225167924665002
6106387,2096,1916,2220,2772,1745225167924665002
6107387,2148,1871,2243,2815,1745225167924665002
6108387,2196,1874,2249,2766,1745225167994199367
6109387,2206,1930,2265,2649,1745225167994199367
6110387,2176,2030,2273,2459,1745225167994199367
6111387,2093,2171,2280,2227,1745225167994199367
6112388,1981,2287,2250,1987,1745225167994199367
6113388,1878,2378,2199,1757,1745225167994199367
6114388,1777,2444,2138,1579,1745225167994199367
6115388,1701,2478,2078,1458,1745225167994199367
6116388,1636,2500,2035,1368,1745225167994199367
6117388,1583,2507,2027,1329,1745225167994199367
6118388,1535,2496,2040,1330,1745225167994199367
6119388,1514,2469,2074,1373,1745225167994199367
6120388,1508,2458,2121,1444,1745225167994199367
6121388,1526,2452,2192,1549,1745225167994199367
6122388,1547,2444,2265,1688,1745225167994199367
6123388,1608,2449,2326,1822,1745225167994199367
6124389,1667,2434,2382,1967,1745225167994199367
6125389,1745,2400,2415,2106,1745225167994199367
6126389,1816,2342,2442,2250,1745225167994199367
6127389,1898,2283,2452,2365,1745225167994199367
6128389,1964,2227,2461,2462,1745225167994199367
6129389,2032,2193,2454,2512,1745225167994199367
6130389,2076,2163,2449,2548,1745225167994199367
6131389,2118,2146,2437,2540,1745225167994199367
6132389,2133,2118,2417,2489,1745225167994199367
6133389,2136,2088,2381,2380,1745225167994199367
6134389,2101,2048,2337,2256,1745225167994199367
6135389,2057,2011,2277,2104,1745225167994199367
6136390,1990,2005,2236,1948,1745225167994199367
6137390,1921,2020,2197,1820,1745225167994199367
6138390,1853,2050,2164,1712,1745225167994199367
6139390,1812,2081,2128,1646,1745225167994199367
6140390,1802,2120,2114,1622,1745225167994199367
6141390,1809,2170,2117,1658,1745225167994199367
6142390,1843,2210,2129,1705,1745225167994199367
6143390,1890,2266,2162,1773,1745225167994199367
6144390,1920,2314,2210,1819,1745225167994199367
6145390,1947,2362,2246,1841,1745225167994199367
6146390,1954,2406,2294,1865,1745225167994199367
6147390,1949,2430,2325,1886,1745225167994199367
6148391,1935,2450,2369,1929,1745225167994199367
6149391,1914,2436,2394,1984,1745225167994199367
6150391,1905,2407,2418,2051,1745225167994199367
6151391,1902,2344,2418,2109,1745225167994199367
6152391,1923,2267,2389,2120,1745225167994199367
6153391,1941,2168,2338,2093,1745225167994199367
6154391,1965,2060,2262,2012,1745225167994199367
6155391,1973,1963,2193,1900,1745225167994199367
6156391,1953,1869,2133,1796,1745225167994199367
6157391,1929,1776,2081,1722,1745225167994199367
6158391,1901,1690,2058,1685,1745225167994199367
6159391,1877,1611,2062,1711,1745225167994199367
6160392,1875,1554,2090,1784,1745225167994199367
6161392,1908,1540,2136,1872,1745225167994199367
6162392,1954,1553,2197,1971,1745225167994199367
6163392,2003,1577,2250,2053,1745225167994199367
6164392,2050,1637,2303,2086,1745225167994199367
6165392,2065,1695,2341,2102,1745225167994199367
6166392,2077,1725,2348,2115,1745225168040731546
6167392,2094,1734,2358,2141,1745225168040731546
6168392,2093,1717,2363,2179,1745225168040731546
6169392,2102,1683,2349,2205,1745225168040731546
6170392,2112,1646,2340,2225,1745225168040731546
6171393,2103,1606,2315,2233,1745225168040731546
6172393,2099,1568,2265,2205,1745225168040731546
6173393,2083,1542,2201,2130,1745225168040731546
6174393,2050,1530,2114,2032,1745225168040731546
6175393,2020,1510,2019,1937,1745225168040731546
6176393,1988,1513,1937,1836,1745225168040731546
6177393,1953,1535,1875,1755,1745225168040731546
6178393,1909,1552,1829,1692,1745225168040731546
6179393,1869,1603,1821,1651,1745225168040731546
6180393,1825,1646,1844,1666,1745225168040731546
6181393,1808,1702,1884,1706,1745225168040731546
6182393,1794,1764,1940,1774,1745225168040731546
6183393,1801,1834,1979,1823,1745225168040731546
6184394,1798,1909,2021,1872,1745225168040731546
6185394,1788,1962,2038,1920,1745225168040731546
6186394,1788,2008,2049,1960,1745225168040731546
6187394,1784,2036,2054,2012,1745225168040731546
6188394,1789,2029,2032,2068,1745225168040731546
6189394,1806,2013,2009,2120,1745225168040731546
6190394,1829,1967,1976,2184,1745225168040731546
6191394,1869,1876,1930,2235,1745225168040731546
6192394,1924,1771,1864,2242,1745225168040731546
6193394,1979,1661,1787,2213,1745225168040731546
6194395,2016,1558,1699,2138,1745225168040731546
6195394,2032,1488,1601,2031,1745225168040731546
6196395,2025,1453,1514,1914,1745225168040731546
6197395,1997,1459,1444,1809,1745225168040731546
6198395,1943,1503,1397,1735,1745225168040731546
6199395,1867,1569,1371,1689,1745225168040731546
6200395,1759,1656,1355,1643,1745225168040731546
6201395,1653,1725,1336,1658,1745225168040731546
6202395,1597,1814,1363,1734,1745225168040731546
6203395,1581,1875,1393,1834,1745225168040731546
6204395,1585,1907,1412,1943,1745225168040731546
6205395,1601,1908,1425,2057,1745225168040731546
6206395,1630,1892,1426,2165,1745225168040731546
6207395,1681,1821,1414,2265,1745225168040731546
6208396,1759,1749,1394,2346,1745225168040731546
6209396,1858,1680,1364,2390,1745225168040731546
6210396,1971,1618,1329,2394,1745225168040731546
6211396,2085,1566,1299,2353,1745225168040731546
6212396,2179,1535,1283,2272,1745225168040731546
6213396,2229,1528,1288,2152,1745225168040731546
6214396,2218,1535,1310,2005,1745225168040731546
6215396,2149,1576,1339,1848,1745225168040731546
6216396,2057,1644,1360,1691,1745225168040731546
6217396,1964,1729,1374,1555,1745225168040731546
6218396,1888,1820,1382,1466,1745225168040731546
6219396,1840,1915,1390,1412,1745225168040731546
6220397,1820,2003,1409,1401,1745225168040731546
6221397,1823,2080,1439,1435,1745225168040731546
6222397,1838,2133,1472,1509,1745225168040731546
6223397,1867,2160,1501,1604,1745225168040731546
6224397,1902,2160,1528,1717,1745225168102443743
6225397,1936,2134,1545,1832,1745225168102443743
6226397,1965,2094,1570,1944,1745225168102443743
6227397,1990,2054,1600,2048,1745225168102443743
6228397,2007,2021,1630,2125,1745225168102443743
6229397,2011,2001,1657,2190,1745225168102443743
6230397,2002,1992,1676,2246,1745225168102443743
6231397,2003,1986,1677,2280,1745225168102443743
6232398,1978,1978,1657,2277,1745225168102443743
6233398,1962,1955,1620,2245,1745225168102443743
6234398,1946,1923,1574,2198,1745225168102443743
6235398,1928,1888,1535,2152,1745225168102443743
6236398,1908,1867,1507,2106,1745225168102443743
6237398,1884,1875,1491,2067,1745225168102443743
6238398,1853,1913,1501,2048,1745225168102443743
6239398,1816,1984,1535,2051,1745225168102443743
6240398,1788,2085,1582,2082,1745225168102443743
6241398,1780,2187,1642,2148,1745225168102443743
6242398,1795,2291,1709,2247,1745225168102443743
6243398,1827,2372,1758,2350,1745225168102443743
6244399,1869,2435,1798,2438,1745225168102443743
6245399,1921,2474,1819,2504,1745225168102443743
6246399,1986,2491,1827,2548,1745225168102443743
6247399,2060,2490,1825,2564,1745225168102443743
6248399,2131,2480,1817,2562,1745225168102443743
6249399,2188,2462,1801,2538,1745225168102443743
6250399,2228,2440,1776,2486,1745225168102443743
6251399,2260,2410,1744,2437,1745225168102443743
6252400,2277,2374,1713,2398,1745225168102443743
6253399,2273,2312,1684,2334,1745225168102443743
6254399,2241,2296,1662,2256,1745225168102443743
6255399,2179,2277,1654,2161,1745225168102443743
6256400,2097,2282,1656,2069,1745225168102443743
6257400,2008,2303,1660,1988,1745225168102443743
6258400,1928,2354,1669,1925,1745225168102443743
6259400,1872,2426,1677,1881,1745225168102443743
6260400,1846,2506,1685,1857,1745225168102443743
6261400,1860,2572,1699,1858,1745225168102443743
6262400,1908,2628,1717,1880,1745225168102443743
6263400,1977,2661,1736,1916,1745225168102443743
6264400,2056,2662,1753,1965,1745225168102443743
6265400,2128,2627,1772,2029,1745225168102443743
6266400,2198,2559,1790,2118,1745225168102443743
6267400,2262,2470,1805,2219,1745225168102443743
6268401,2323,2362,1814,2320,1745225168102443743
6269401,2381,2252,1816,2406,1745225168102443743
6270401,2436,2155,1819,2470,1745225168102443743
6271401,2488,2081,1827,2502,1745225168102443743
6272401,2520,2044,1845,2485,1745225168102443743
6273401,2513,2058,1874,2404,1745225168102443743
6274401,2457,2108,1902,2276,1745225168102443743
6275401,2371,2171,1921,2137,1745225168102443743
6276401,2284,2227,1921,2011,1745225168102443743
6277401,2217,2263,1902,1921,1745225168102443743
6278401,2176,2278,1882,1879,1745225168102443743
6279401,2162,2281,1874,1885,1745225168102443743
6280402,2170,2276,1884,1931,1745225168102443743
6281402,2195,2273,1916,2001,1745225168102443743
6282402,2221,2269,1962,2079,1745225168159657647
6283402,2236,2262,2022,2158,1745225168159657647
6284402,2229,2257,2093,2215,1745225168159657647
6285402,2210,2256,2155,2254,1745225168159657647
6286402,2195,2264,2208,2272,1745225168159657647
6287402,2188,2275,2244,2270,1745225168159657647
6288402,2198,2278,2267,2262,1745225168159657647
6289402,2235,2267,2273,2259,1745225168159657647
6290402,2297,2229,2275,2261,1745225168159657647
6291402,2370,2162,2277,2267,1745225168159657647
6292403,2433,2070,2279,2259,1745225168159657647
6293403,2472,1963,2268,2222,1745225168159657647
6294403,2486,1860,2245,2161,1745225168159657647
6295403,2483,1772,2222,2096,1745225168159657647
6296403,2464,1714,2219,2041,1745225168159657647
6297403,2429,1692,2235,2002,1745225168159657647
6298403,2381,1713,2265,1972,1745225168159657647
6299403,2337,1774,2301,1956,1745225168159657647
6300403,2308,1857,2328,1960,1745225168159657647
6301403,2310,1948,2345,1979,1745225168159657647
6302403,2337,2034,2346,1999,1745225168159657647
6303403,2374,2106,2335,2012,1745225168159657647
6304404,2417,2156,2320,2020,1745225168159657647
6305404,2450,2180,2315,2028,1745225168159657647
6306404,2463,2182,2322,2041,1745225168159657647
6307404,2445,2164,2344,2064,1745225168159657647
6308404,2410,2137,2368,2083,1745225168159657647
6309404,2368,2102,2390,2101,1745225168159657647
6310404,2327,2066,2406,2114,1745225168159657647
6311405,2291,2021,2410,2118,1745225168159657647
6312404,2265,1966,2398,2109,1745225168159657647
6313404,2242,1896,2371,2086,1745225168159657647
6314404,2209,1818,2354,2057,1745225168159657647
6315404,2203,1747,2308,2034,1745225168159657647
6316405,2201,1690,2292,2032,1745225168159657647
6317405,2210,1641,2293,2061,1745225168159657647
6318405,2238,1601,2310,2114,1745225168159657647
6319405,2288,1568,2339,2169,1745225168159657647
6320405,2354,1558,2381,2226,1745225168159657647
6321405,2428,1555,2428,2282,1745225168159657647
6322405,2506,1573,2466,2310,1745225168159657647
6323405,2561,1612,2492,2301,1745225168159657647
6324405,2597,1688,2511,2236,1745225168159657647
6325405,2598,1795,2528,2132,1745225168159657647
6326405,2559,1910,2540,2019,1745225168159657647
6327405,2484,2010,2546,1918,1745225168159657647
6328406,2396,2090,2546,1844,1745225168159657647
6329406,2317,2140,2538,1795,1745225168159657647
6330406,2255,2170,2523,1766,1745225168159657647
6331406,2210,2176,2497,1744,1745225168159657647
6332406,2179,2156,2459,1720,1745225168159657647
6333406,2160,2109,2417,1691,1745225168159657647
6334406,2145,2043,2379,1665,1745225168159657647
6335406,2130,1977,2356,1651,1745225168159657647
6336406,2117,1921,2352,1659,1745225168159657647
6337406,2113,1882,2365,1696,1745225168159657647
6338406,2115,1853,2394,1768,1745225168159657647
6339406,2128,1829,2433,1872,1745225168159657647
6340407,2161,1805,2472,2003,1745225168225271006
6341407,2220,1773,2505,2156,1745225168225271006
6342407,2300,1731,2529,2307,1745225168225271006
6343407,2385,1691,2546,2432,1745225168225271006
6344407,2460,1668,2557,2501,1745225168225271006
6345407,2512,1669,2562,2512,1745225168225271006
6346407,2534,1698,2578,2462,1745225168225271006
6347407,2527,1761,2592,2359,1745225168225271006
6348407,2488,1850,2600,2222,1745225168225271006
6349407,2424,1956,2592,2076,1745225168225271006
6350407,2356,2058,2562,1954,1745225168225271006
6351407,2300,2139,2529,1860,1745225168225271006
6352408,2256,2196,2477,1779,1745225168225271006
6353408,2218,2228,2414,1696,1745225168225271006
6354408,2179,2238,2351,1604,1745225168225271006
6355408,2137,2232,2298,1525,1745225168225271006
6356408,2090,2217,2261,1452,1745225168225271006
6357408,2040,2197,2246,1402,1745225168225271006
6358408,1990,2181,2253,1379,1745225168225271006
6359408,1948,2162,2269,1385,1745225168225271006
6360408,1918,2140,2285,1421,1745225168225271006
6361408,1913,2112,2301,1483,1745225168225271006
6362408,1922,2074,2318,1555,1745225168225271006
6363408,1932,2027,2336,1634,1745225168225271006
6364409,1942,1976,2350,1702,1745225168225271006
6365409,1947,1920,2366,1763,1745225168225271006
6366409,1945,1867,2397,1820,1745225168225271006
6367409,1930,1825,2434,1878,1745225168225271006
6368409,1909,1806,2474,1925,1745225168225271006
6369409,1896,1803,2497,1960,1745225168225271006
6370409,1908,1816,2503,1986,1745225168225271006
6371409,1958,1827,2491,2005,1745225168225271006
6372409,2032,1817,2461,2000,1745225168225271006
6373409,2115,1792,2422,1981,1745225168225271006
6374409,2181,1735,2378,1963,1745225168225271006
6375409,2225,1654,2336,1965,1745225168225271006
6376410,2251,1568,2306,1985,1745225168225271006
6377410,2257,1500,2293,2006,1745225168225271006
6378410,2242,1449,2298,2029,1745225168225271006
6379410,2224,1420,2315,2055,1745225168225271006
6380410,2212,1434,2344,2081,1745225168225271006
6381410,2203,1476,2371,2100,1745225168225271006
6382410,2204,1537,2385,2088,1745225168225271006
6383410,2211,1617,2371,2040,1745225168225271006
6384410,2226,1695,2334,1986,1745225168225271006
6385410,2250,1770,2291,1944,1745225168225271006
6386410,2270,1843,2256,1918,1745225168225271006
6387410,2280,1910,2238,1910,1745225168225271006
6388411,2268,1965,2241,1928,1745225168225271006
6389411,2239,2001,2257,1963,1745225168225271006
6390411,2205,2017,2275,2006,1745225168225271006
6391411,2178,2017,2280,2041,1745225168225271006
6392411,2153,2002,2263,2051,1745225168225271006
6393411,2133,1977,2225,2024,1745225168225271006
6394411,2110,1950,2179,1977,1745225168225271006
6395411,2086,1924,2134,1923,1745225168225271006
6396411,2063,1900,2097,1872,1745225168225271006
6397411,2043,1883,2066,1825,1745225168225271006
6398411,2032,1876,2041,1796,1745225168274672898
6399411,2031,1877,2029,1797,1745225168274672898
6400412,2048,1888,2032,1834,1745225168274672898
6401412,2076,1908,2052,1900,1745225168274672898
6402412,2108,1937,2078,1979,1745225168274672898
6403412,2140,1968,2106,2060,1745225168274672898
6404412,2158,2004,2130,2127,1745225168274672898
6405413,2177,2045,2148,2172,1745225168274672898
6406412,2189,2089,2164,2202,1745225168274672898
6407412,2185,2118,2176,2225,1745225168274672898
6408414,2179,2137,2184,2251,1745225168274672898
6409412,2169,2149,2190,2258,1745225168274672898
6410412,2155,2153,2192,2238,1745225168274672898
6411412,2137,2141,2188,2202,1745225168274672898
6412413,2115,2111,2176,2154,1745225168274672898
6413413,2088,2064,2153,2090,1745225168274672898
6414413,2059,2002,2117,2022,1745225168274672898
6415413,2037,1933,2080,1973,1745225168274672898
6416413,2032,1858,2043,1954,1745225168274672898
6417413,2044,1786,2024,1969,1745225168274672898
6418413,2069,1720,2022,2019,1745225168274672898
6419413,2109,1674,2060,2107,1745225168274672898
6420413,2148,1643,2113,2202,1745225168274672898
6421413,2171,1642,2182,2290,1745225168274672898
6422413,2178,1685,2250,2347,1745225168274672898
6423413,2171,1760,2304,2373,1745225168274672898
6424414,2162,1844,2337,2379,1745225168274672898
6425414,2157,1928,2349,2372,1745225168274672898
6426414,2170,2003,2344,2359,1745225168274672898
6427414,2189,2058,2332,2354,1745225168274672898
6428415,2211,2095,2308,2348,1745225168274672898
6429414,2225,2128,2280,2314,1745225168274672898
6430414,2235,2157,2240,2230,1745225168274672898
6431414,2229,2181,2188,2122,1745225168274672898
6432414,2217,2197,2130,1994,1745225168274672898
6433414,2186,2202,2069,1868,1745225168274672898
6434414,2141,2192,2013,1759,1745225168274672898
6435414,2097,2181,1971,1666,1745225168274672898
6436415,2050,2165,1936,1585,1745225168274672898
6437415,1993,2139,1923,1548,1745225168274672898
6438415,1960,2124,1918,1546,1745225168274672898
6439415,1940,2109,1929,1590,1745225168274672898
6440415,1945,2108,1970,1675,1745225168274672898
6441415,1961,2102,2017,1776,1745225168274672898
6442415,1994,2106,2081,1933,1745225168274672898
6443415,2025,2095,2133,2064,1745225168274672898
6444415,2064,2072,2169,2182,1745225168274672898
6445415,2102,2038,2189,2278,1745225168274672898
6446415,2141,1998,2196,2346,1745225168274672898
6447415,2178,1957,2193,2378,1745225168274672898
6448416,2217,1915,2182,2380,1745225168274672898
6449416,2256,1892,2177,2365,1745225168274672898
6450416,2285,1893,2174,2322,1745225168274672898
6451416,2288,1900,2166,2253,1745225168274672898
6452416,2260,1906,2149,2156,1745225168274672898
6453416,2217,1912,2121,2038,1745225168274672898
6454416,2155,1909,2074,1921,1745225168274672898
6455416,2096,1923,2036,1836,1745225168274672898
6456416,2049,1950,2001,1766,1745225168335040889
6457416,2000,1986,1983,1738,1745225168335040889
6458416,1971,2036,1985,1737,1745225168335040889
6459416,1941,2086,1997,1779,1745225168335040889
6460417,1939,2145,2030,1861,1745225168335040889
6461417,1956,2188,2064,1954,1745225168335040889
6462417,1988,2216,2088,2052,1745225168335040889
6463417,2028,2226,2107,2145,1745225168335040889
6464417,2077,2218,2115,2225,1745225168335040889
6465417,2117,2186,2110,2287,1745225168335040889
6466417,2155,2145,2101,2334,1745225168335040889
6467417,2186,2101,2097,2374,1745225168335040889
6468417,2213,2066,2105,2404,1745225168335040889
6469417,2230,2026,2115,2420,1745225168335040889
6470417,2230,2003,2139,2430,1745225168335040889
6471417,2218,1997,2170,2414,1745225168335040889
6472418,2189,1987,2171,2348,1745225168335040889
6473418,2143,1978,2149,2240,1745225168335040889
6474418,2093,1976,2110,2114,1745225168335040889
6475418,2044,1977,2056,1980,1745225168335040889
6476418,2004,1983,2000,1873,1745225168335040889
6477418,1986,2000,1966,1797,1745225168335040889
6478418,1971,2010,1949,1761,1745225168335040889
6479418,1970,2037,1965,1779,1745225168335040889
6480418,1979,2069,1990,1833,1745225168335040889
6481418,2005,2106,2025,1917,1745225168335040889
6482418,2043,2155,2066,2008,1745225168335040889
6483418,2080,2192,2094,2080,1745225168335040889
6484419,2112,2222,2114,2130,1745225168335040889
6485420,2136,2234,2122,2170,1745225168335040889
6486419,2159,2219,2128,2220,1745225168335040889
6487419,2182,2192,2139,2273,1745225168335040889
6488419,2203,2133,2129,2328,1745225168335040889
6489419,2219,2078,2136,2387,1745225168335040889
6490419,2225,2020,2132,2426,1745225168335040889
6491419,2233,1979,2125,2426,1745225168335040889
6492419,2232,1954,2105,2365,1745225168335040889
6493419,2207,1926,2066,2250,1745225168335040889
6494419,2160,1915,2025,2106,1745225168335040889
6495419,2101,1932,1978,1953,1745225168335040889
6496420,2042,1963,1950,1822,1745225168335040889
6497420,1987,1984,1934,1742,1745225168335040889
6498420,1956,2011,1928,1699,1745225168335040889
6499420,1939,2039,1945,1729,1745225168335040889
6500420,1951,2084,1975,1798,1745225168335040889
6501420,1973,2120,2010,1898,1745225168335040889
6502420,2011,2161,2050,2006,1745225168335040889
6503420,2057,2189,2074,2093,1745225168335040889
6504420,2085,2210,2093,2158,1745225168335040889
6505420,2101,2229,2117,2205,1745225168335040889
6506420,2111,2249,2127,2220,1745225168335040889
6507420,2102,2265,2132,2213,1745225168335040889
6508421,2089,2280,2133,2200,1745225168335040889
6509421,2079,2302,2143,2186,1745225168335040889
6510421,2060,2309,2144,2173,1745225168335040889
6511421,2048,2296,2136,2157,1745225168335040889
6512421,2036,2254,2117,2140,1745225168335040889
6513421,2032,2180,2080,2108,1745225168335040889
6514421,2031,2083,2033,2094,1745225168392721976
6515421,2053,1986,1997,2095,1745225168392721976
6516421,2073,1889,1958,2113,1745225168392721976
6517421,2108,1817,1938,2134,1745225168392721976
6518421,2146,1758,1920,2146,1745225168392721976
6519421,2188,1741,1932,2170,1745225168392721976
6520422,2233,1772,1969,2193,1745225168392721976
6521422,2252,1836,2026,2212,1745225168392721976
6522422,2249,1929,2086,2204,1745225168392721976
6523422,2233,2033,2131,2162,1745225168392721976
6524422,2194,2122,2153,2117,1745225168392721976
6525422,2152,2197,2166,2083,1745225168392721976
6526422,2121,2277,2172,2070,1745225168392721976
6527422,2097,2347,2166,2064,1745225168392721976
6528422,2078,2416,2158,2069,1745225168392721976
6529422,2065,2472,2149,2083,1745225168392721976
6530422,2060,2512,2143,2101,1745225168392721976
6531422,2061,2520,2115,2093,1745225168392721976
6532423,2059,2498,2074,2059,1745225168392721976
6533423,2056,2454,2030,2011,1745225168392721976
6534423,2050,2402,1981,1945,1745225168392721976
6535423,2027,2344,1941,1881,1745225168392721976
6536423,2006,2306,1917,1824,1745225168392721976
6537423,1978,2266,1895,1777,1745225168392721976
6538423,1946,2236,1896,1765,1745225168392721976
6539423,1934,2222,1905,1785,1745225168392721976
6540423,1932,2211,1934,1857,1745225168392721976
6541423,1957,2211,1978,1969,1745225168392721976
6542424,1998,2201,2012,2081,1745225168392721976
6543423,2045,2190,2050,2186,1745225168392721976
6544424,2099,2164,2061,2253,1745225168392721976
6545424,2146,2149,2060,2284,1745225168392721976
6546424,2179,2145,2065,2304,1745225168392721976
6547424,2205,2147,2084,2303,1745225168392721976
6548424,2208,2152,2089,2286,1745225168392721976
6549424,2194,2156,2104,2271,1745225168392721976
6550424,2166,2168,2115,2248,1745225168392721976
6551424,2132,2173,2129,2226,1745225168392721976
6552424,2088,2173,2130,2200,1745225168392721976
6553424,2042,2148,2097,2140,1745225168392721976
6554424,1997,2131,2051,2060,1745225168392721976
6555424,1965,2108,2005,1986,1745225168392721976
6556425,1940,2070,1969,1945,1745225168392721976
6557425,1942,2025,1941,1941,1745225168392721976
6558425,1954,1989,1947,1995,1745225168392721976
6559425,1977,1951,1970,2082,1745225168392721976
6560425,2018,1948,2022,2190,1745225168392721976
6561425,2064,1956,2076,2291,1745225168392721976
6562425,2102,1985,2132,2368,1745225168392721976
6563425,2133,2037,2186,2399,1745225168392721976
6564425,2140,2098,2210,2368,1745225168392721976
6565425,2130,2156,2209,2288,1745225168392721976
6566425,2115,2206,2191,2194,1745225168392721976
6567425,2099,2226,2152,2106,1745225168392721976
6568426,2080,2217,2113,2048,1745225168392721976
6569426,2077,2194,2092,2014,1745225168392721976
6570426,2069,2143,2061,2005,1745225168392721976
6571426,2065,2088,2042,2004,1745225168392721976
6572426,2058,2025,2010,1977,1745225168464411165
6573426,2035,1966,1976,1945,1745225168464411165
6574426,2016,1931,1946,1896,1745225168464411165
6575426,1985,1907,1922,1854,1745225168464411165
6576426,1969,1923,1904,1803,1745225168464411165
6577426,1948,1962,1891,1770,1745225168464411165
6578426,1939,2032,1897,1760,1745225168464411165
6579426,1929,2097,1910,1809,1745225168464411165
6580427,1946,2153,1944,1909,1745225168464411165
6581427,1974,2172,1979,2043,1745225168464411165
6582427,2016,2159,2014,2185,1745225168464411165
6583427,2068,2128,2059,2319,1745225168464411165
6584427,2115,2080,2084,2414,1745225168464411165
6585427,2148,2033,2106,2470,1745225168464411165
6586427,2171,2016,2126,2490,1745225168464411165
6587427,2181,2026,2138,2465,1745225168464411165
6588427,2169,2043,2140,2424,1745225168464411165
6589427,2159,2068,2137,2390,1745225168464411165
6590427,2161,2090,2122,2356,1745225168464411165
6591427,2156,2088,2091,2319,1745225168464411165
6592428,2152,2067,2057,2278,1745225168464411165
6593428,2148,2034,2014,2209,1745225168464411165
6594428,2125,2001,1976,2125,1745225168464411165
6595428,2093,1990,1959,2038,1745225168464411165
6596428,2052,1992,1947,1939,1745225168464411165
6597428,1997,2014,1950,1852,1745225168464411165
6598428,1954,2057,1957,1773,1745225168464411165
6599428,1916,2102,1977,1739,1745225168464411165
6600428,1910,2158,2003,1745,1745225168464411165
6601428,1915,2200,2028,1797,1745225168464411165
6602428,1946,2238,2064,1873,1745225168464411165
6603428,1977,2254,2085,1949,1745225168464411165
6604429,2005,2260,2113,2036,1745225168464411165
6605429,2037,2266,2138,2112,1745225168464411165
6606429,2061,2245,2140,2163,1745225168464411165
6607429,2084,2243,2139,2187,1745225168464411165
6608429,2094,2237,2130,2191,1745225168464411165
6609429,2108,2243,2110,2166,1745225168464411165
6610429,2106,2248,2093,2147,1745225168464411165
6611429,2105,2248,2064,2101,1745225168464411165
6612429,2084,2228,2028,2044,1745225168464411165
6613429,2058,2195,1990,1979,1745225168464411165
6614429,2017,2139,1946,1917,1745225168464411165
6615429,1984,2085,1917,1880,1745225168464411165
6616430,1953,2022,1894,1853,1745225168464411165
6617430,1928,1976,1896,1860,1745225168464411165
6618430,1917,1944,1913,1885,1745225168464411165
6619430,1912,1932,1956,1939,1745225168464411165
6620430,1931,1950,2018,2010,1745225168464411165
6621430,1961,1977,2074,2078,1745225168464411165
6622430,2006,2013,2117,2140,1745225168464411165
6623430,2065,2061,2154,2193,1745225168464411165
6624430,2113,2096,2166,2233,1745225168464411165
6625430,2148,2122,2171,2272,1745225168464411165
6626430,2177,2146,2170,2305,1745225168464411165
6627430,2193,2148,2153,2329,1745225168464411165
6628431,2204,2137,2133,2349,1745225168464411165
6629431,2213,2118,2117,2368,1745225168464411165
6630431,2222,2108,2109,2370,1745225168508043371
6631431,2219,2090,2090,2340,1745225168508043371
6632431,2201,2072,2060,2280,1745225168508043371
6633431,2176,2059,2033,2202,1745225168508043371
6634431,2136,2034,2001,2113,1745225168508043371
6635431,2091,2017,1980,2035,1745225168508043371
6636431,2058,2005,1957,1962,1745225168508043371
6637431,2021,1995,1946,1920,1745225168508043371
6638431,2009,2010,1955,1899,1745225168508043371
6639431,1992,2038,1981,1910,1745225168508043371
6640432,1981,2097,2037,1950,1745225168508043371
6641432,1972,2147,2091,1990,1745225168508043371
6642432,1966,2198,2145,2037,1745225168508043371
6643432,1967,2240,2183,2062,1745225168508043371
6644432,1955,2269,2208,2073,1745225168508043371
6645432,1950,2298,2228,2077,1745225168508043371
6646432,1939,2301,2227,2074,1745225168508043371
6647432,1934,2288,2228,2090,1745225168508043371
6648432,1937,2246,2216,2114,1745225168508043371
6649432,1958,2201,2209,2153,1745225168508043371
6650432,1987,2142,2190,2188,1745225168508043371
6651432,2025,2095,2173,2202,1745225168508043371
6652433,2041,2043,2147,2190,1745225168508043371
6653433,2051,2011,2131,2153,1745225168508043371
6654433,2035,1981,2107,2086,1745225168508043371
6655433,2010,1968,2088,2011,1745225168508043371
6656433,1984,1965,2072,1948,1745225168508043371
6657433,1964,1979,2064,1904,1745225168508043371
6658433,1953,2005,2053,1881,1745225168508043371
6659433,1956,2042,2052,1882,1745225168508043371
6660433,1979,2084,2063,1923,1745225168508043371
6661433,2028,2130,2079,1982,1745225168508043371
6662433,2065,2148,2093,2060,1745225168508043371
6663433,2108,2166,2106,2126,1745225168508043371
6664434,2137,2171,2123,2193,1745225168508043371
6665434,2165,2154,2124,2240,1745225168508043371
6666434,2184,2131,2137,2289,1745225168508043371
6667434,2201,2106,2149,2322,1745225168508043371
6668434,2200,2089,2162,2344,1745225168508043371
6669434,2191,2085,2186,2361,1745225168508043371
6670434,2183,2086,2180,2352,1745225168508043371
6671434,2172,2082,2176,2312,1745225168508043371
6672434,2145,2062,2150,2248,1745225168508043371
6673434,2124,2041,2111,2140,1745225168508043371
6674434,2081,2019,2076,2029,1745225168508043371
6675434,2035,2003,2037,1917,1745225168508043371
6676435,1987,2009,2022,1842,1745225168508043371
6677435,1934,2022,2015,1757,1745225168508043371
6678435,1888,2050,2022,1717,1745225168508043371
6679435,1844,2103,2027,1717,1745225168508043371
6680435,1824,2174,2053,1749,1745225168508043371
6681435,1830,2240,2080,1818,1745225168508043371
6682435,1854,2290,2103,1888,1745225168508043371
6683435,1890,2309,2118,1969,1745225168508043371
6684435,1930,2304,2121,2037,1745225168508043371
6685435,1967,2281,2115,2094,1745225168508043371
6686435,1998,2249,2106,2138,1745225168508043371
6687435,2026,2197,2097,2172,1745225168508043371
6688436,2050,2141,2095,2205,1745225168566894239
6689436,2069,2102,2098,2234,1745225168566894239
6690436,2081,2071,2105,2246,1745225168566894239
6691436,2082,2048,2101,2230,1745225168566894239
6692436,2072,2026,2076,2182,1745225168566894239
6693436,2056,2002,2030,2115,1745225168566894239
6694436,2034,1971,1979,2056,1745225168566894239
6695436,2018,1936,1936,2020,1745225168566894239
6696436,2005,1906,1909,1990,1745225168566894239
6697436,1995,1889,1901,1984,1745225168566894239
6698436,1993,1894,1916,1993,1745225168566894239
6699436,1994,1928,1952,2016,1745225168566894239
6700437,1996,1990,2003,2038,1745225168566894239
6701437,2000,2072,2057,2049,1745225168566894239
6702437,1982,2149,2095,2041,1745225168566894239
6703437,1969,2208,2115,2035,1745225168566894239
6704437,1961,2242,2121,2037,1745225168566894239
6705437,1958,2257,2112,2049,1745225168566894239
6706437,1965,2251,2094,2066,1745225168566894239
6707437,1981,2230,2074,2091,1745225168566894239
6708437,2003,2198,2058,2125,1745225168566894239
6709437,2029,2160,2049,2158,1745225168566894239
6710437,2060,2120,2042,2177,1745225168566894239
6711437,2082,2075,2030,2168,1745225168566894239
6712438,2092,2028,2010,2125,1745225168566894239
6713438,2086,1987,1982,2052,1745225168566894239
6714438,2068,1960,1949,1953,1745225168566894239
6715438,2035,1953,1913,1850,1745225168566894239
6716438,2002,1961,1876,1757,1745225168566894239
6717439,1974,1973,1840,1689,1745225168566894239
6718438,1962,1987,1820,1660,1745225168566894239
6719438,1965,2002,1822,1687,1745225168566894239
6720439,1987,2029,1846,1765,1745225168566894239
6721438,2017,2030,1886,1885,1745225168566894239
6722438,2054,2030,1928,2014,1745225168566894239
6723438,2090,2019,1960,2138,1745225168566894239
6724439,2122,2002,1989,2243,1745225168566894239
6725439,2145,1985,2042,2326,1745225168566894239
6726439,2160,1985,2058,2389,1745225168566894239
6727439,2158,2006,2089,2418,1745225168566894239
6728439,2146,2052,2108,2416,1745225168566894239
6729439,2129,2106,2113,2377,1745225168566894239
6730439,2112,2153,2099,2317,1745225168566894239
6731439,2097,2173,2065,2237,1745225168566894239
6732439,2084,2160,2014,2145,1745225168566894239
6733439,2070,2121,1962,2048,1745225168566894239
6734439,2050,2068,1916,1955,1745225168566894239
6735439,2022,2017,1884,1882,1745225168566894239
6736440,1993,1974,1866,1826,1745225168566894239
6737440,1964,1947,1864,1795,1745225168566894239
6738440,1941,1939,1880,1789,1745225168566894239
6739440,1928,1963,1907,1804,1745225168566894239
6740440,1929,2016,1939,1835,1745225168566894239
6741440,1944,2093,1972,1876,1745225168566894239
6742440,1954,2170,2000,1915,1745225168566894239
6743440,1975,2235,2020,1952,1745225168566894239
6744442,1996,2278,2031,1985,1745225168566894239
6745440,2014,2301,2036,2016,1745225168566894239
6746441,2029,2304,2035,2038,1745225168634816067
6747440,2042,2293,2032,2062,1745225168634816067
6748441,2056,2270,2027,2083,1745225168634816067
6749441,2064,2241,2026,2108,1745225168634816067
6750441,2069,2204,2025,2128,1745225168634816067
6751441,2069,2168,2016,2124,1745225168634816067
6752441,2061,2121,1992,2093,1745225168634816067
6753441,2043,2071,1958,2048,1745225168634816067
6754441,2024,2020,1929,2001,1745225168634816067
6755441,2002,1978,1907,1963,1745225168634816067
6756441,1986,1946,1890,1934,1745225168634816067
6757441,1979,1924,1882,1924,1745225168634816067
6758441,1982,1917,1892,1946,1745225168634816067
6759441,1997,1926,1922,1997,1745225168634816067
6760442,2018,1953,1962,2066,1745225168634816067
6761442,2048,1995,2002,2126,1745225168634816067
6762442,2075,2040,2030,2168,1745225168634816067
6763442,2107,2076,2054,2197,1745225168634816067
6764442,2118,2097,2072,2228,1745225168634816067
6765442,2129,2099,2089,2266,1745225168634816067
6766442,2135,2080,2102,2315,1745225168634816067
6767442,2138,2040,2115,2378,1745225168634816067
6768442,2145,1995,2120,2442,1745225168634816067
6769442,2155,1948,2121,2493,1745225168634816067
6770442,2164,1913,2116,2511,1745225168634816067
6771442,2166,1901,2105,2469,1745225168634816067
6772443,2149,1921,2083,2350,1745225168634816067
6773443,2114,1963,2041,2169,1745225168634816067
6774443,2066,2021,1987,1954,1745225168634816067
6775443,2005,2093,1932,1753,1745225168634816067
6776443,1954,2162,1885,1590,1745225168634816067
6777443,1884,2221,1859,1497,1745225168634816067
6778444,1840,2264,1858,1462,1745225168634816067
6779443,1827,2294,1882,1505,1745225168634816067
6780443,1818,2305,1929,1593,1745225168634816067
6781443,1843,2308,1972,1722,1745225168634816067
6782443,1884,2291,2006,1861,1745225168634816067
6783443,1935,2261,2022,1987,1745225168634816067
6784444,1987,2229,2037,2092,1745225168634816067
6785444,2036,2205,2037,2166,1745225168634816067
6786444,2078,2191,2037,2213,1745225168634816067
6787444,2106,2192,2043,2237,1745225168634816067
6788444,2118,2208,2058,2241,1745225168634816067
6789444,2114,2226,2072,2219,1745225168634816067
6790444,2099,2233,2075,2175,1745225168634816067
6791444,2078,2218,2059,2113,1745225168634816067
6792444,2051,2180,2024,2033,1745225168634816067
6793444,2022,2129,1978,1952,1745225168634816067
6794444,2001,2075,1932,1882,1745225168634816067
6795444,1985,2026,1890,1834,1745225168634816067
6796445,1973,1987,1860,1808,1745225168634816067
6797445,1969,1956,1849,1815,1745225168634816067
6798445,1969,1939,1858,1859,1745225168634816067
6799445,1982,1938,1889,1938,1745225168634816067
6800445,2006,1955,1932,2028,1745225168634816067
6801445,2036,1987,1979,2109,1745225168634816067
6802445,2064,2025,2020,2163,1745225168634816067
6803445,2075,2077,2056,2191,1745225168634816067
6804445,2075,2118,2087,2201,1745225168683465362
6805445,2067,2150,2108,2196,1745225168683465362
6806445,2058,2176,2125,2189,1745225168683465362
6807445,2048,2187,2136,2188,1745225168683465362
6808446,2043,2186,2138,2197,1745225168683465362
6809446,2053,2168,2129,2210,1745225168683465362
6810446,2073,2136,2105,2218,1745225168683465362
6811446,2094,2089,2066,2203,1745225168683465362
6812446,2113,2027,2011,2161,1745225168683465362
6813446,2121,1964,1956,2097,1745225168683465362
6814446,2117,1908,1913,2021,1745225168683465362
6815446,2096,1876,1890,1948,1745225168683465362
6816446,2061,1871,1890,1883,1745225168683465362
6817446,2013,1885,1912,1842,1745225168683465362
6818446,1971,1914,1950,1837,1745225168683465362
6819446,1942,1950,1996,1872,1745225168683465362
6820447,1935,1992,2044,1933,1745225168683465362
6821447,1948,2026,2084,2006,1745225168683465362
6822447,1977,2050,2114,2088,1745225168683465362
6823447,2012,2061,2136,2160,1745225168683465362
6824447,2049,2061,2145,2217,1745225168683465362
6825447,2082,2062,2145,2248,1745225168683465362
6826447,2109,2064,2137,2254,1745225168683465362
6827447,2131,2067,2126,2246,1745225168683465362
6828447,2142,2060,2117,2234,1745225168683465362
6829447,2145,2061,2113,2222,1745225168683465362
6830447,2137,2069,2108,2203,1745225168683465362
6831447,2120,2067,2091,2165,1745225168683465362
6832448,2092,2050,2064,2114,1745225168683465362
6833448,2062,2017,2028,2056,1745225168683465362
6834448,2031,1982,2000,1996,1745225168683465362
6835448,2003,1955,1966,1946,1745225168683465362
6836449,1982,1936,1945,1907,1745225168683465362
6837448,1970,1931,1925,1884,1745225168683465362
6838448,1970,1948,1920,1884,1745225168683465362
6839448,1980,1979,1933,1913,1745225168683465362
6840448,1998,2033,1966,1969,1745225168683465362
6841448,2017,2100,2014,2034,1745225168683465362
6842448,2030,2168,2065,2089,1745225168683465362
6843448,2041,2236,2106,2118,1745225168683465362
6844449,2048,2302,2137,2133,1745225168683465362
6845449,2045,2346,2154,2133,1745225168683465362
6846449,2036,2377,2155,2129,1745225168683465362
6847449,2041,2397,2147,2128,1745225168683465362
6848449,2029,2382,2144,2139,1745225168683465362
6849449,2031,2356,2136,2165,1745225168683465362
6850449,2040,2308,2122,2196,1745225168683465362
6851449,2054,2243,2100,2213,1745225168683465362
6852449,2077,2169,2068,2200,1745225168683465362
6853449,2059,2088,2026,2150,1745225168683465362
6854449,2049,2013,1992,2092,1745225168683465362
6855449,2034,1961,1965,2025,1745225168683465362
6856450,2017,1935,1950,1954,1745225168683465362
6857450,1998,1945,1938,1878,1745225168683465362
6858450,1978,1985,1933,1810,1745225168683465362
6859450,1959,2039,1942,1769,1745225168683465362
6860450,1946,2091,1962,1765,1745225168683465362
6861450,1944,2123,1984,1796,1745225168683465362
6862450,1957,2132,2003,1852,1745225168744875322
6863450,1980,2122,2021,1924,1745225168744875322
6864450,2008,2098,2037,1998,1745225168744875322
6865450,2034,2067,2058,2073,1745225168744875322
6866450,2055,2043,2077,2138,1745225168744875322
6867450,2066,2032,2097,2190,1745225168744875322
6868451,2072,2035,2112,2226,1745225168744875322
6869451,2074,2058,2120,2233,1745225168744875322
6870451,2069,2090,2120,2217,1745225168744875322
6871451,2058,2123,2107,2164,1745225168744875322
6872451,2037,2144,2078,2089,1745225168744875322
6873451,2016,2147,2036,2004,1745225168744875322
6874451,1994,2136,1989,1925,1745225168744875322
6875451,1975,2112,1946,1864,1745225168744875322
6876451,1961,2079,1909,1829,1745225168744875322
6877451,1954,2042,1889,1823,1745225168744875322
6878451,1959,2013,1885,1852,1745225168744875322
6879451,1981,1996,1900,1910,1745225168744875322
6880452,2015,1987,1935,1989,1745225168744875322
6881452,2052,1989,1982,2073,1745225168744875322
6882452,2080,1998,2035,2147,1745225168744875322
6883452,2096,2014,2088,2210,1745225168744875322
6884452,2106,2035,2136,2265,1745225168744875322
6885452,2113,2053,2184,2314,1745225168744875322
6886452,2112,2062,2226,2357,1745225168744875322
6887452,2120,2066,2262,2388,1745225168744875322
6888452,2128,2068,2283,2400,1745225168744875322
6889452,2139,2074,2284,2384,1745225168744875322
6890452,2152,2085,2263,2337,1745225168744875322
6891452,2162,2094,2221,2260,1745225168744875322
6892453,2165,2094,2165,2157,1745225168744875322
6893453,2160,2088,2101,2041,1745225168744875322
6894453,2144,2082,2049,1935,1745225168744875322
6895454,2110,2088,2024,1849,1745225168744875322
6896453,2060,2100,2009,1789,1745225168744875322
6897453,2013,2115,2021,1765,1745225168744875322
6898453,1970,2133,2051,1776,1745225168744875322
6899453,1947,2155,2084,1819,1745225168744875322
6900453,1948,2174,2117,1886,1745225168744875322
6901453,1974,2191,2149,1966,1745225168744875322
6902453,1997,2188,2171,2044,1745225168744875322
6903453,2027,2178,2190,2112,1745225168744875322
6904454,2057,2162,2201,2166,1745225168744875322
6905454,2081,2137,2208,2213,1745225168744875322
6906454,2100,2101,2210,2260,1745225168744875322
6907454,2116,2066,2207,2301,1745225168744875322
6908454,2132,2032,2204,2336,1745225168744875322
6909454,2145,2010,2199,2353,1745225168744875322
6910454,2156,2000,2188,2336,1745225168744875322
6911454,2158,2000,2165,2272,1745225168744875322
6912454,2142,2010,2133,2166,1745225168744875322
6913454,2108,2028,2092,2036,1745225168744875322
6914454,2065,2051,2049,1908,1745225168744875322
6915454,2018,2064,2011,1796,1745225168744875322
6916455,1977,2062,1978,1716,1745225168744875322
6917455,1950,2048,1961,1686,1745225168744875322
6918455,1940,2019,1963,1714,1745225168744875322
6919455,1944,1996,1989,1799,1745225168744875322
6920455,1964,1984,2030,1916,1745225168800272420
6921455,1993,1980,2076,2038,1745225168800272420
6922455,2026,1982,2114,2146,1745225168800272420
6923455,2056,1996,2144,2233,1745225168800272420
6924455,2076,2020,2168,2282,1745225168800272420
6925455,2092,2056,2174,2286,1745225168800272420
6926455,2101,2092,2165,2255,1745225168800272420
6927455,2109,2125,2147,2208,1745225168800272420
6928456,2113,2152,2129,2165,1745225168800272420
6929456,2110,2158,2115,2136,1745225168800272420
6930456,2101,2161,2107,2106,1745225168800272420
6931456,2078,2149,2091,2060,1745225168800272420
6932456,2049,2124,2060,1994,1745225168800272420
6933456,2017,2088,2021,1920,1745225168800272420
6934456,1988,2053,1981,1846,1745225168800272420
6935456,1962,2019,1947,1786,1745225168800272420
6936456,1935,1994,1928,1754,1745225168800272420
6937456,1917,1970,1929,1766,1745225168800272420
6938456,1905,1954,1953,1826,1745225168800272420
6939456,1904,1949,1996,1923,1745225168800272420
6940457,1912,1952,2050,2028,1745225168800272420
6941457,1934,1958,2092,2126,1745225168800272420
6942457,1968,1962,2121,2200,1745225168800272420
6943457,2006,1971,2136,2241,1745225168800272420
6944457,2043,1989,2137,2242,1745225168800272420
6945457,2075,2017,2129,2213,1745225168800272420
6946457,2092,2053,2120,2176,1745225168800272420
6947457,2098,2082,2112,2149,1745225168800272420
6948457,2100,2101,2105,2146,1745225168800272420
6949457,2102,2108,2101,2158,1745225168800272420
6950457,2101,2100,2097,2179,1745225168800272420
6951459,2091,2069,2088,2196,1745225168800272420
6952458,2073,2016,2068,2203,1745225168800272420
6953458,2057,1952,2038,2194,1745225168800272420
6954458,2038,1892,2007,2174,1745225168800272420
6955458,2030,1845,1973,2148,1745225168800272420
6956458,2027,1820,1956,2129,1745225168800272420
6957458,2032,1795,1920,2117,1745225168800272420
6958458,2041,1811,1913,2113,1745225168800272420
6959458,2061,1852,1926,2117,1745225168800272420
6960458,2080,1908,1962,2134,1745225168800272420
6961458,2094,1961,2005,2160,1745225168800272420
6962458,2108,2006,2050,2181,1745225168800272420
6963458,2120,2044,2080,2174,1745225168800272420
6964459,2124,2081,2104,2150,1745225168800272420
6965459,2122,2113,2116,2116,1745225168800272420
6966459,2117,2142,2120,2077,1745225168800272420
6967459,2111,2171,2115,2032,1745225168800272420
6968459,2105,2208,2100,1982,1745225168800272420
6969459,2101,2253,2083,1930,1745225168800272420
6970459,2094,2286,2061,1888,1745225168800272420
6971459,2085,2299,2027,1840,1745225168800272420
6972459,2062,2285,1998,1805,1745225168800272420
6973459,2031,2255,1972,1784,1745225168800272420
6974459,2004,2229,1955,1769,1745225168800272420
6975459,1974,2201,1942,1768,1745225168800272420
6976460,1950,2179,1940,1778,1745225168800272420
6977460,1936,2157,1951,1809,1745225168800272420
6978460,1934,2181,1966,1849,1745225168860006926
6979460,1946,2201,1992,1906,1745225168860006926
6980460,1971,2225,2017,1980,1745225168860006926
6981460,2010,2246,2041,2051,1745225168860006926
6982460,2048,2260,2059,2116,1745225168860006926
6983460,2082,2264,2071,2171,1745225168860006926
6984460,2112,2248,2076,2222,1745225168860006926
6985460,2138,2216,2077,2273,1745225168860006926
6986460,2161,2170,2076,2321,1745225168860006926
6987460,2180,2118,2076,2365,1745225168860006926
6988461,2197,2073,2077,2392,1745225168860006926
6989461,2207,2037,2077,2396,1745225168860006926
6990461,2208,2016,2069,2365,1745225168860006926
6991461,2189,2006,2067,2302,1745225168860006926
6992461,2145,2002,2068,2212,1745225168860006926
6993461,2080,2004,2061,2101,1745225168860006926
6994461,2013,2009,2043,1994,1745225168860006926
6995461,1968,2016,2021,1907,1745225168860006926
6996461,1941,2016,1990,1842,1745225168860006926
6997461,1930,2020,1964,1813,1745225168860006926
6998461,1936,2043,1964,1824,1745225168860006926
6999461,1946,2070,1976,1868,1745225168860006926
7000462,1960,2106,2008,1946,1745225168860006926
7001462,1987,2151,2049,2025,1745225168860006926
7002462,2012,2178,2073,2099,1745225168860006926
7003462,2035,2194,2092,2162,1745225168860006926
7004462,2059,2201,2109,2225,1745225168860006926
7005462,2084,2194,2124,2280,1745225168860006926
7006462,2102,2164,2124,2326,1745225168860006926
7007462,2123,2126,2115,2360,1745225168860006926
7008462,2145,2094,2109,2387,1745225168860006926
7009462,2170,2074,2099,2384,1745225168860006926
7010462,2179,2056,2081,2352,1745225168860006926
7011462,2180,2040,2061,2294,1745225168860006926
7012463,2170,2053,2040,2210,1745225168860006926
7013463,2144,2070,2019,2092,1745225168860006926
7014463,2086,2087,2004,1985,1745225168860006926
7015463,2033,2097,1980,1893,1745225168860006926
7016463,1989,2102,1964,1839,1745225168860006926
7017463,1955,2092,1945,1826,1745225168860006926
7018463,1946,2095,1950,1848,1745225168860006926
7019463,1949,2077,1961,1916,1745225168860006926
7020463,1978,2069,1981,1997,1745225168860006926
7021463,2011,2054,2005,2086,1745225168860006926
7022463,2059,2054,2030,2147,1745225168860006926
7023463,2086,2058,2049,2178,1745225168860006926
7024464,2101,2082,2072,2186,1745225168860006926
7025464,2108,2120,2086,2163,1745225168860006926
7026464,2092,2157,2097,2130,1745225168860006926
7027464,2067,2196,2104,2093,1745225168860006926
7028464,2038,2236,2113,2065,1745225168860006926
7029464,2012,2265,2106,2022,1745225168860006926
7030464,1986,2275,2083,1977,1745225168860006926
7031464,1969,2269,2051,1928,1745225168860006926
7032464,1963,2246,2008,1867,1745225168860006926
7033464,1948,2201,1958,1811,1745225168860006926
7034464,1935,2152,1928,1782,1745225168860006926
7035464,1925,2099,1898,1762,1745225168860006926
7036465,1914,2042,1882,1771,1745225168921110431
7037465,1921,1998,1888,1809,1745225168921110431
7038465,1930,1962,1907,1872,1745225168921110431
7039465,1948,1946,1948,1960,1745225168921110431
7040465,1976,1951,2004,2055,1745225168921110431
7041465,2007,1966,2064,2149,1745225168921110431
7042465,2038,1982,2110,2233,1745225168921110431
7043465,2075,1996,2144,2302,1745225168921110431
7044465,2106,2000,2160,2348,1745225168921110431
7045465,2134,1997,2170,2391,1745225168921110431
7046465,2156,1996,2174,2419,1745225168921110431
7047465,2176,2001,2172,2433,1745225168921110431
7048466,2193,2012,2165,2426,1745225168921110431
7049466,2200,2032,2158,2403,1745225168921110431
7050466,2193,2052,2146,2354,1745225168921110431
7051466,2168,2063,2125,2276,1745225168921110431
7052466,2132,2062,2093,2182,1745225168921110431
7053466,2099,2056,2050,2077,1745225168921110431
7054466,2059,2039,2002,1980,1745225168921110431
7055466,2025,2033,1967,1906,1745225168921110431
7056466,2005,2041,1934,1846,1745225168921110431
7057466,1986,2061,1917,1821,1745225168921110431
7058466,1989,2097,1923,1829,1745225168921110431
7059466,1989,2136,1946,1874,1745225168921110431
7060467,1997,2177,1992,1955,1745225168921110431
7061467,2017,2210,2040,2031,1745225168921110431
7062467,2033,2223,2075,2100,1745225168921110431
7063467,2058,2222,2099,2153,1745225168921110431
7064467,2089,2217,2121,2199,1745225168921110431
7065467,2121,2196,2131,2237,1745225168921110431
7066467,2143,2169,2142,2272,1745225168921110431
7067467,2160,2146,2153,2299,1745225168921110431
7068467,2171,2130,2166,2321,1745225168921110431
7069467,2181,2107,2170,2325,1745225168921110431
7070467,2185,2086,2165,2303,1745225168921110431
7071467,2184,2067,2147,2260,1745225168921110431
7072468,2173,2078,2142,2145,1745225168921110431
7073468,2136,2086,2089,1997,1745225168921110431
7074468,2080,2105,2049,1858,1745225168921110431
7075468,2012,2109,2011,1749,1745225168921110431
7076468,1971,2104,1968,1673,1745225168921110431
7077468,1938,2102,1945,1645,1745225168921110431
7078468,1918,2097,1938,1654,1745225168921110431
7079468,1931,2109,1949,1701,1745225168921110431
7080468,1956,2118,1966,1774,1745225168921110431
7081468,2001,2137,2001,1861,1745225168921110431
7082468,2039,2137,2029,1944,1745225168921110431
7083468,2073,2131,2062,2025,1745225168921110431
7084469,2109,2118,2086,2091,1745225168921110431
7085469,2139,2090,2096,2146,1745225168921110431
7086469,2161,2063,2108,2208,1745225168921110431
7087469,2184,2040,2123,2262,1745225168921110431
7088469,2188,2017,2137,2309,1745225168921110431
7089469,2187,1998,2149,2348,1745225168921110431
7090469,2180,1980,2158,2368,1745225168921110431
7091469,2170,1972,2158,2348,1745225168921110431
7092471,2138,1961,2145,2300,1745225168921110431
7093469,2098,1962,2128,2237,1745225168921110431
7094469,2062,1974,2114,2169,1745225168975876545
7095469,2025,1977,2091,2101,1745225168975876545
7096470,1999,1984,2079,2057,1745225168975876545
7097470,1993,2005,2069,2016,1745225168975876545
7098470,1988,2022,2062,2000,1745225168975876545
7099470,2002,2053,2067,2016,1745225168975876545
7100470,2038,2081,2066,2038,1745225168975876545
7101470,2077,2096,2067,2068,1745225168975876545
7102470,2114,2105,2074,2099,1745225168975876545
7103470,2146,2110,2089,2118,1745225168975876545
7104470,2158,2102,2100,2124,1745225168975876545
7105470,2156,2099,2114,2120,1745225168975876545
7106470,2147,2109,2128,2106,1745225168975876545
7107470,2129,2130,2132,2076,1745225168975876545
7108471,2098,2146,2134,2052,1745225168975876545
7109471,2073,2156,2134,2037,1745225168975876545
7110471,2065,2165,2122,2013,1745225168975876545
7111471,2060,2154,2085,1969,1745225168975876545
7112471,2053,2132,2039,1918,1745225168975876545
7113471,2048,2108,2002,1864,1745225168975876545
7114471,2021,2080,1978,1824,1745225168975876545
7115471,2004,2065,1970,1800,1745225168975876545
7116471,1984,2049,1966,1794,1745225168975876545
7117471,1976,2050,1987,1823,1745225168975876545
7118471,1982,2053,2008,1873,1745225168975876545
7119471,2000,2066,2042,1956,1745225168975876545
7120472,2036,2090,2083,2052,1745225168975876545
7121472,2073,2105,2110,2139,1745225168975876545
7122472,2108,2117,2125,2208,1745225168975876545
7123472,2144,2125,2138,2264,1745225168975876545
7124472,2180,2129,2139,2299,1745225168975876545
7125472,2214,2129,2136,2316,1745225168975876545
7126472,2214,2138,2140,2322,1745225168975876545
7127472,2214,2156,2148,2317,1745225168975876545
7128472,2209,2186,2167,2299,1745225168975876545
7129472,2190,2198,2158,2256,1745225168975876545
7130472,2163,2209,2152,2192,1745225168975876545
7131472,2118,2192,2127,2108,1745225168975876545
7132473,2078,2156,2073,1993,1745225168975876545
7133473,2032,2100,2021,1898,1745225168975876545
7134473,1987,2065,1963,1808,1745225168975876545
7135473,1956,2019,1909,1746,1745225168975876545
7136473,1939,1993,1888,1716,1745225168975876545
7137473,1925,1976,1892,1741,1745225168975876545
7138473,1937,1985,1921,1796,1745225168975876545
7139473,1955,2009,1982,1892,1745225168975876545
7140473,1981,2036,2041,1993,1745225168975876545
7141473,2017,2061,2105,2102,1745225168975876545
7142473,2066,2077,2150,2188,1745225168975876545
7143473,2105,2077,2179,2258,1745225168975876545
7144474,2142,2066,2201,2320,1745225168975876545
7145474,2176,2040,2202,2358,1745225168975876545
7146474,2202,2004,2193,2383,1745225168975876545
7147474,2222,1967,2176,2396,1745225168975876545
7148474,2245,1942,2163,2402,1745225168975876545
7149474,2265,1921,2141,2377,1745225168975876545
7150474,2268,1917,2123,2316,1745225168975876545
7151474,2254,1944,2110,2221,1745225168975876545
7152474,2209,1966,2088,2108,1745225169043707696
7153474,2145,1992,2064,2000,1745225169043707696
7154474,2096,2029,2034,1898,1745225169043707696
7155474,2049,2057,1995,1817,1745225169043707696
7156475,2025,2091,1966,1755,1745225169043707696
7157475,2001,2112,1941,1724,1745225169043707696
7158475,2000,2145,1941,1731,1745225169043707696
7159475,2002,2188,1954,1760,1745225169043707696
7160475,2011,2243,1989,1814,1745225169043707696
7161475,2022,2289,2030,1874,1745225169043707696
7162475,2024,2319,2078,1946,1745225169043707696
7163475,2025,2336,2122,2016,1745225169043707696
7164475,2034,2342,2157,2080,1745225169043707696
7165475,2048,2329,2176,2123,1745225169043707696
7166475,2057,2304,2184,2155,1745225169043707696
7167475,2070,2274,2179,2179,1745225169043707696
7168476,2091,2242,2173,2190,1745225169043707696
7169476,2106,2200,2154,2192,1745225169043707696
7170476,2117,2144,2125,2181,1745225169043707696
7171476,2123,2082,2096,2165,1745225169043707696
7172476,2124,2011,2054,2132,1745225169043707696
7173476,2110,1944,2016,2100,1745225169043707696
7174476,2100,1902,1989,2061,1745225169043707696
7175476,2080,1871,1965,2020,1745225169043707696
7176476,2068,1870,1956,1990,1745225169043707696
7177476,2058,1877,1949,1966,1745225169043707696
7178476,2054,1914,1961,1965,1745225169043707696
7179476,2064,1972,1979,1971,1745225169043707696
7180477,2074,2033,1997,1987,1745225169043707696
7181477,2091,2088,2022,2025,1745225169043707696
7182477,2117,2129,2042,2069,1745225169043707696
7183477,2133,2153,2068,2120,1745225169043707696
7184477,2146,2170,2093,2177,1745225169043707696
7185477,2158,2178,2108,2213,1745225169043707696
7186477,2160,2168,2109,2236,1745225169043707696
7187477,2165,2153,2106,2259,1745225169043707696
7188478,2178,2138,2102,2270,1745225169043707696
7189477,2199,2110,2093,2269,1745225169043707696
7190477,2196,2074,2082,2249,1745225169043707696
7191477,2192,2034,2052,2196,1745225169043707696
7192478,2169,1995,2033,2142,1745225169043707696
7193478,2136,1948,2017,2085,1745225169043707696
7194478,2097,1917,2005,2032,1745225169043707696
7195478,2064,1912,1998,1972,1745225169043707696
7196478,2021,1918,1995,1918,1745225169043707696
7197478,1993,1942,1993,1872,1745225169043707696
7198479,1969,1976,2009,1867,1745225169043707696
7199478,1968,2004,2029,1893,1745225169043707696
7200478,1987,2044,2060,1937,1745225169043707696
7201478,2008,2078,2075,1980,1745225169043707696
7202478,2042,2119,2093,2019,1745225169043707696
7203478,2075,2150,2101,2053,1745225169043707696
7204479,2094,2180,2118,2085,1745225169043707696
7205479,2100,2209,2148,2117,1745225169043707696
7206479,2092,2220,2162,2139,1745225169043707696
7207479,2082,2224,2182,2169,1745225169043707696
7208479,2076,2204,2185,2198,1745225169043707696
7209479,2077,2160,2178,2231,1745225169043707696
7210479,2090,2102,2158,2245,1745225169097101219
7211479,2097,2027,2124,2233,1745225169097101219
7212479,2099,1957,2080,2193,1745225169097101219
7213479,2099,1906,2035,2138,1745225169097101219
7214479,2092,1887,2003,2073,1745225169097101219
7215479,2080,1899,1977,1995,1745225169097101219
7216480,2059,1942,1965,1928,1745225169097101219
7217480,2037,1999,1969,1886,1745225169097101219
7218480,2021,2064,1989,1874,1745225169097101219
7219480,2008,2128,2017,1889,1745225169097101219
7220480,2001,2188,2048,1918,1745225169097101219
7221480,2002,2234,2070,1954,1745225169097101219
7222480,2010,2266,2084,1988,1745225169097101219
7223480,2019,2284,2096,2019,1745225169097101219
7224480,2029,2293,2102,2041,1745225169097101219
7225480,2034,2293,2105,2057,1745225169097101219
7226480,2037,2283,2104,2065,1745225169097101219
7227480,2034,2265,2101,2070,1745225169097101219
7228481,2027,2242,2097,2076,1745225169097101219
7229481,2021,2217,2089,2073,1745225169097101219
7230481,2014,2184,2070,2054,1745225169097101219
7231481,2002,2143,2042,2018,1745225169097101219
7232481,1981,2094,2009,1974,1745225169097101219
7233481,1958,2041,1977,1930,1745225169097101219
7234481,1940,1993,1949,1896,1745225169097101219
7235481,1932,1949,1932,1881,1745225169097101219
7236481,1937,1905,1925,1905,1745225169097101219
7237481,1961,1859,1936,1972,1745225169097101219
7238481,2003,1821,1963,2072,1745225169097101219
7239481,2058,1801,2001,2181,1745225169097101219
7240482,2114,1798,2040,2278,1745225169097101219
7241482,2169,1810,2076,2350,1745225169097101219
7242482,2214,1842,2106,2389,1745225169097101219
7243482,2237,1900,2134,2388,1745225169097101219
7244482,2229,1976,2161,2355,1745225169097101219
7245482,2192,2053,2184,2304,1745225169097101219
7246483,2146,2120,2194,2248,1745225169097101219
7247482,2106,2170,2193,2198,1745225169097101219
7248482,2082,2205,2182,2157,1745225169097101219
7249482,2070,2224,2165,2125,1745225169097101219
7250482,2064,2227,2138,2081,1745225169097101219
7251482,2057,2210,2099,2027,1745225169097101219
7252483,2048,2174,2053,1968,1745225169097101219
7253483,2033,2128,2006,1913,1745225169097101219
7254483,2026,2077,1965,1870,1745225169097101219
7255483,2012,2028,1937,1841,1745225169097101219
7256483,2009,1985,1911,1834,1745225169097101219
7257483,2006,1960,1907,1852,1745225169097101219
7258483,2015,1950,1920,1899,1745225169097101219
7259483,2033,1962,1950,1970,1745225169097101219
7260483,2052,1986,1989,2042,1745225169097101219
7261483,2065,2013,2028,2120,1745225169097101219
7262485,2076,2031,2066,2185,1745225169097101219
7263483,2088,2033,2077,2246,1745225169097101219
7264484,2105,2026,2090,2301,1745225169097101219
7265484,2122,2017,2103,2338,1745225169097101219
7266484,2133,2013,2106,2355,1745225169097101219
7267484,2139,2018,2101,2356,1745225169097101219
7268484,2140,2032,2106,2341,1745225169179915358
7269484,2129,2060,2109,2313,1745225169179915358
7270484,2107,2085,2113,2267,1745225169179915358
7271484,2077,2092,2105,2202,1745225169179915358
7272484,2052,2075,2082,2128,1745225169179915358
7273484,2033,2036,2051,2057,1745225169179915358
7274484,2024,1994,2017,1994,1745225169179915358
7275484,2025,1953,1993,1951,1745225169179915358
7276485,2029,1924,1981,1926,1745225169179915358
7277485,2034,1917,1987,1915,1745225169179915358
7278485,2030,1939,2012,1921,1745225169179915358
7279485,2021,1978,2048,1940,1745225169179915358
7280485,2018,2020,2078,1969,1745225169179915358
7281485,2025,2059,2096,2001,1745225169179915358
7282485,2038,2091,2099,2029,1745225169179915358
7283485,2056,2127,2094,2052,1745225169179915358
7284485,2065,2162,2087,2064,1745225169179915358
7285485,2072,2191,2077,2070,1745225169179915358
7286485,2076,2221,2073,2074,1745225169179915358
7287485,2074,2248,2078,2076,1745225169179915358
7288486,2068,2275,2089,2070,1745225169179915358
7289486,2053,2294,2096,2049,1745225169179915358
7290486,2028,2294,2088,2005,1745225169179915358
7291486,2003,2270,2061,1948,1745225169179915358
7292486,1977,2228,2017,1881,1745225169179915358
7293486,1952,2180,1971,1813,1745225169179915358
7294486,1933,2137,1932,1755,1745225169179915358
7295486,1917,2104,1905,1712,1745225169179915358
7296486,1904,2084,1899,1694,1745225169179915358
7297486,1893,2080,1916,1712,1745225169179915358
7298486,1890,2091,1952,1763,1745225169179915358
7299486,1897,2108,1996,1841,1745225169179915358
7300487,1917,2124,2041,1932,1745225169179915358
7301487,1948,2129,2081,2028,1745225169179915358
7302487,1986,2113,2107,2123,1745225169179915358
7303487,2030,2078,2119,2211,1745225169179915358
7304488,2077,2026,2120,2291,1745225169179915358
7305488,2124,1964,2111,2361,1745225169179915358
7306487,2169,1898,2102,2425,1745225169179915358
7307487,2210,1834,2099,2480,1745225169179915358
7308487,2239,1787,2105,2515,1745225169179915358
7309487,2252,1773,2102,2517,1745225169179915358
7310487,2244,1762,2120,2472,1745225169179915358
7311487,2213,1774,2112,2378,1745225169179915358
7312488,2164,1798,2092,2254,1745225169179915358
7313488,2105,1827,2063,2124,1745225169179915358
7314488,2050,1857,2028,2006,1745225169179915358
7315488,2002,1884,2001,1920,1745225169179915358
7316488,1964,1903,1981,1869,1745225169179915358
7317488,1943,1921,1979,1861,1745225169179915358
7318488,1936,1943,1996,1893,1745225169179915358
7319488,1944,1976,2030,1949,1745225169179915358
7320488,1962,2019,2069,2002,1745225169179915358
7321488,1986,2075,2098,2029,1745225169179915358
7322488,2008,2133,2110,2027,1745225169179915358
7323488,2021,2186,2106,2008,1745225169179915358
7324489,2030,2223,2091,1986,1745225169179915358
7325489,2043,2248,2075,1978,1745225169179915358
7326489,2058,2264,2061,1981,1745225169220025200
7327489,2066,2270,2059,2000,1745225169220025200
7328489,2068,2270,2061,2024,1745225169220025200
7329489,2067,2263,2058,2038,1745225169220025200
7330489,2069,2241,2039,2029,1745225169220025200
7331489,2066,2206,2009,1988,1745225169220025200
7332489,2058,2163,1968,1923,1745225169220025200
7333489,2040,2120,1925,1851,1745225169220025200
7334489,2022,2079,1890,1797,1745225169220025200
7335489,2008,2043,1872,1772,1745225169220025200
7336490,1992,2018,1878,1781,1745225169220025200
7337490,1978,2002,1914,1833,1745225169220025200
7338490,1967,2000,1966,1916,1745225169220025200
7339490,1969,2006,2023,2022,1745225169220025200
7340490,1984,2015,2076,2137,1745225169220025200
7341490,2009,2022,2115,2237,1745225169220025200
7342490,2038,2030,2142,2308,1745225169220025200
7343490,2067,2041,2155,2347,1745225169220025200
7344490,2088,2053,2157,2354,1745225169220025200
7345490,2105,2061,2150,2338,1745225169220025200
7346490,2120,2071,2138,2303,1745225169220025200
7347490,2128,2086,2129,2258,1745225169220025200
7348491,2123,2101,2125,2210,1745225169220025200
7349491,2108,2114,2124,2161,1745225169220025200
7350491,2080,2113,2114,2109,1745225169220025200
7351491,2040,2094,2094,2053,1745225169220025200
7352491,1998,2059,2062,1993,1745225169220025200
7353491,1959,2016,2025,1956,1745225169220025200
7354491,1929,1973,1993,1924,1745225169220025200
7355491,1915,1932,1964,1918,1745225169220025200
7356491,1917,1897,1946,1930,1745225169220025200
7357491,1934,1877,1940,1958,1745225169220025200
7358491,1965,1876,1952,2005,1745225169220025200
7359491,2009,1891,1978,2066,1745225169220025200
7360492,2071,1923,2010,2112,1745225169220025200
7361492,2089,1965,2051,2136,1745225169220025200
7362492,2101,2020,2093,2149,1745225169220025200
7363492,2086,2077,2134,2165,1745225169220025200
7364493,2064,2128,2168,2187,1745225169220025200
7365492,2043,2168,2187,2208,1745225169220025200
7366492,2035,2198,2189,2218,1745225169220025200
7367492,2042,2212,2181,2204,1745225169220025200
7368492,2062,2214,2146,2197,1745225169220025200
7369492,2083,2206,2112,2158,1745225169220025200
7370492,2098,2189,2067,2095,1745225169220025200
7371492,2097,2165,2013,2009,1745225169220025200
7372493,2082,2134,1963,1917,1745225169220025200
7373493,2053,2103,1925,1838,1745225169220025200
7374493,2013,2074,1911,1787,1745225169220025200
7375493,1970,2050,1920,1768,1745225169220025200
7376493,1933,2027,1942,1784,1745225169220025200
7377493,1912,2017,1974,1834,1745225169220025200
7378493,1912,2019,2012,1903,1745225169220025200
7379493,1926,2040,2054,1981,1745225169220025200
7380493,1955,2061,2086,2054,1745225169220025200
7381493,1993,2081,2105,2113,1745225169220025200
7382493,2034,2089,2112,2164,1745225169220025200
7383493,2074,2085,2106,2208,1745225169220025200
7384494,2107,2066,2099,2246,1745225169269934640
7385494,2134,2037,2092,2277,1745225169269934640
7386494,2156,2008,2090,2304,1745225169269934640
7387494,2177,1982,2094,2323,1745225169269934640
7388494,2191,1972,2108,2331,1745225169269934640
7389494,2191,1985,2123,2305,1745225169269934640
7390494,2164,2012,2128,2234,1745225169269934640
7391494,2117,2039,2109,2127,1745225169269934640
7392494,2076,2060,2073,2010,1745225169269934640
7393494,2006,2058,2028,1908,1745225169269934640
7394494,1966,2049,1990,1833,1745225169269934640
7395494,1933,2037,1960,1778,1745225169269934640
7396495,1915,2033,1937,1745,1745225169269934640
7397495,1916,2042,1926,1740,1745225169269934640
7398495,1930,2064,1932,1769,1745225169269934640
7399495,1954,2097,1956,1821,1745225169269934640
7400495,1974,2135,1998,1885,1745225169269934640
7401495,1988,2163,2042,1953,1745225169269934640
7402495,1994,2178,2081,2013,1745225169269934640
7403495,1992,2185,2112,2077,1745225169269934640
7404495,1992,2160,2128,2129,1745225169269934640
7405495,1989,2129,2138,2188,1745225169269934640
7406495,1992,2084,2142,2255,1745225169269934640
7407495,1999,2032,2141,2319,1745225169269934640
7408496,2013,1988,2138,2378,1745225169269934640
7409496,2028,1947,2129,2419,1745225169269934640
7410496,2039,1907,2116,2430,1745225169269934640
7411496,2054,1876,2097,2404,1745225169269934640
7412496,2071,1860,2072,2333,1745225169269934640
7413496,2084,1867,2053,2229,1745225169269934640
7414496,2084,1890,2038,2114,1745225169269934640
7415496,2074,1926,2030,2000,1745225169269934640
7416496,2059,1980,2026,1906,1745225169269934640
7417496,2043,2052,2031,1850,1745225169269934640
7418496,2034,2126,2048,1841,1745225169269934640
7419496,2037,2197,2077,1872,1745225169269934640
7420497,2054,2258,2110,1928,1745225169269934640
7421497,2078,2309,2142,1990,1745225169269934640
7422497,2101,2338,2162,2041,1745225169269934640
7423497,2124,2349,2168,2089,1745225169269934640
7424497,2145,2341,2162,2128,1745225169269934640
7425497,2166,2318,2150,2160,1745225169269934640
7426497,2186,2277,2133,2182,1745225169269934640
7427497,2206,2225,2115,2201,1745225169269934640
7428497,2226,2165,2100,2213,1745225169269934640
7429497,2244,2109,2081,2208,1745225169269934640
7430497,2256,2058,2050,2171,1745225169269934640
7431497,2259,2008,2002,2094,1745225169269934640
7432498,2252,1973,1968,2002,1745225169269934640
7433498,2229,1950,1925,1904,1745225169269934640
7434498,2179,1931,1900,1822,1745225169269934640
7435498,2121,1926,1897,1780,1745225169269934640
7436498,2072,1933,1903,1763,1745225169269934640
7437498,2027,1952,1913,1787,1745225169269934640
7438498,1998,1985,1968,1836,1745225169269934640
7439498,1986,2034,2022,1910,1745225169269934640
7440498,1984,2093,2086,1993,1745225169269934640
7441498,1981,2152,2148,2077,1745225169269934640
7442498,1974,2204,2205,2155,1745225169326272615
7443498,1973,2246,2245,2216,1745225169326272615
7444499,1978,2277,2258,2249,1745225169326272615
7445499,1996,2296,2245,2260,1745225169326272615
7446499,2026,2305,2213,2261,1745225169326272615
